timestamp,x,y,z
1563815718539888,-0.489746,-0.126465,0.562012
1563815718554878,-0.52832,-0.145508,0.538086
1563815718585861,-0.568848,-0.159668,0.511719
1563815718600852,-0.615723,-0.182129,0.50293
1563815718616843,-0.644531,-0.199707,0.486328
1563815718638830,-0.677246,-0.210449,0.477539
1563815718659819,-0.698242,-0.222168,0.462891
1563815718674810,-0.715332,-0.231934,0.443848
1563815718729778,-0.761719,-0.233887,0.438477
1563815718731777,-0.770508,-0.243652,0.422852
1563815718739772,-0.777832,-0.25,0.407715
1563815718759761,-0.794434,-0.26709,0.404297
1563815718779750,-0.803223,-0.263672,0.398926
1563815718842713,-0.809082,-0.272949,0.395508
1563815718842713,-0.810059,-0.277832,0.383789
1563815718843712,-0.823242,-0.270508,0.383789
1563815718862701,-0.837402,-0.279785,0.381348
1563815718877693,-0.828125,-0.287109,0.389648
1563815718901679,-0.837402,-0.293457,0.337402
1563815718917670,-0.824707,-0.299316,0.331543
1563815718944655,-0.804688,-0.276855,0.415039
1563815718954649,-0.918457,-0.320313,0.291504
1563815718977636,-0.813477,-0.270508,0.40332
1563815718997623,-0.85498,-0.288574,0.341309
1563815719014615,-0.861816,-0.288574,0.352539
1563815719037601,-0.853516,-0.290527,0.361328
1563815719057591,-0.853027,-0.293945,0.366699
1563815719082575,-0.86084,-0.290039,0.368652
1563815719105562,-0.86084,-0.287109,0.369629
1563815719117558,-0.867188,-0.294434,0.366699
1563815719135545,-0.878418,-0.297852,0.368652
1563815719157535,-0.87793,-0.311035,0.373047
1563815719177521,-0.877441,-0.305176,0.379395
1563815719195511,-0.875488,-0.304199,0.377441
1563815719217498,-0.87207,-0.30127,0.383789
1563815719237487,-0.86084,-0.296875,0.383301
1563815719262472,-0.864746,-0.30127,0.38916
1563815719277464,-0.862793,-0.312988,0.389648
1563815719306448,-0.85498,-0.307129,0.381348
1563815719315442,-0.861816,-0.300293,0.381348
1563815719336429,-0.859863,-0.291504,0.383301
1563815719359416,-0.852051,-0.293945,0.382813
1563815719381404,-0.850098,-0.301758,0.384766
1563815719396396,-0.859375,-0.305664,0.382813
1563815719417383,-0.860352,-0.297363,0.387695
1563815719434374,-0.854492,-0.293945,0.39209
1563815719456361,-0.866699,-0.294434,0.394043
1563815719477349,-0.866699,-0.29541,0.400879
1563815719494339,-0.864746,-0.298828,0.397461
1563815719516327,-0.867676,-0.304199,0.410156
1563815719553305,-0.858887,-0.299316,0.406738
1563815719568296,-0.865234,-0.297852,0.411133
1563815719576293,-0.859863,-0.293945,0.408691
1563815719598279,-0.859863,-0.291016,0.411133
1563815719614271,-0.864746,-0.299805,0.410156
1563815719636258,-0.858887,-0.291016,0.40332
1563815719658246,-0.85791,-0.296875,0.408691
1563815719674246,-0.858398,-0.294434,0.405762
1563815719697223,-0.849609,-0.306152,0.401855
1563815719719210,-0.84375,-0.301758,0.407715
1563815719733202,-0.847656,-0.297852,0.405273
1563815719757189,-0.848145,-0.302246,0.40625
1563815719779176,-0.847656,-0.300293,0.40918
1563815719794168,-0.852539,-0.30957,0.395996
1563815719823150,-0.853027,-0.310547,0.409668
1563815719839142,-0.853027,-0.304199,0.405762
1563815719862129,-0.853027,-0.303223,0.40918
1563815719883116,-0.852539,-0.306641,0.411133
1563815719899108,-0.85498,-0.316895,0.408691
1563815719922094,-0.856445,-0.30957,0.403809
1563815719943082,-0.84668,-0.306641,0.405273
1563815719959073,-0.857422,-0.303711,0.409668
1563815719982060,-0.856445,-0.303223,0.410645
1563815720003048,-0.85498,-0.307617,0.401367
1563815720027034,-0.855957,-0.310059,0.401855
1563815720043024,-0.851074,-0.309082,0.407227
1563815720063017,-0.85498,-0.314941,0.40625
1563815720079004,-0.853516,-0.310547,0.404297
1563815720101992,-0.848633,-0.309082,0.408691
1563815720122981,-0.851563,-0.309082,0.403809
1563815720138970,-0.852051,-0.306152,0.401855
1563815720161956,-0.847168,-0.303223,0.410156
1563815720189941,-0.852051,-0.310059,0.404785
1563815720204932,-0.85791,-0.308594,0.407227
1563815720221922,-0.850586,-0.313477,0.409668
1563815720243909,-0.84668,-0.306641,0.407715
1563815720258900,-0.847168,-0.306641,0.404297
1563815720281889,-0.84668,-0.309082,0.405762
1563815720304876,-0.849121,-0.306152,0.403809
1563815720318866,-0.855957,-0.308105,0.406738
1563815720341853,-0.852051,-0.307617,0.407227
1563815720363841,-0.859375,-0.308105,0.40918
1563815720378832,-0.86377,-0.310059,0.407715
1563815720401819,-0.850098,-0.308105,0.400391
1563815720423808,-0.848145,-0.30957,0.405273
1563815720438797,-0.850586,-0.30957,0.400879
1563815720467781,-0.85791,-0.3125,0.405762
1563815720490767,-0.853516,-0.306641,0.404297
1563815720498764,-0.84668,-0.305664,0.401855
1563815720521750,-0.850098,-0.310059,0.402832
1563815720543737,-0.852051,-0.317383,0.401855
1563815720565725,-0.851563,-0.310059,0.403809
1563815720581716,-0.852051,-0.313477,0.40625
1563815720604701,-0.853027,-0.316406,0.406738
1563815720618695,-0.849121,-0.319336,0.411621
1563815720641683,-0.846191,-0.312988,0.407715
1563815720664670,-0.851074,-0.312988,0.410156
1563815720678659,-0.855469,-0.312012,0.41748
1563815720701647,-0.846191,-0.31543,0.407715
1563815720731628,-0.853027,-0.314941,0.412109
1563815720746620,-0.848145,-0.311523,0.403809
1563815720769610,-0.848145,-0.307129,0.402832
1563815720784599,-0.847168,-0.30957,0.40332
1563815720806586,-0.853027,-0.311523,0.407227
1563815720821597,-0.852051,-0.313965,0.40918
1563815720844564,-0.848145,-0.310547,0.401855
1563815720865572,-0.846191,-0.309082,0.40332
1563815720881545,-0.84668,-0.308594,0.398438
1563815720904531,-0.84082,-0.311523,0.402344
1563815720926517,-0.845703,-0.313477,0.40332
1563815720947509,-0.850586,-0.316895,0.403809
1563815720964496,-0.848145,-0.314453,0.404297
1563815720985503,-0.847168,-0.311523,0.408203
1563815721001476,-0.836914,-0.31543,0.410156
1563815721025461,-0.845215,-0.318359,0.413086
1563815721048448,-0.848145,-0.317383,0.416016
1563815721061440,-0.848633,-0.318848,0.412598
1563815721084428,-0.854492,-0.322266,0.416992
1563815721105418,-0.849609,-0.321289,0.410645
1563815721121407,-0.858398,-0.328125,0.411133
1563815721144394,-0.867676,-0.339844,0.410156
1563815721166382,-0.867676,-0.334961,0.414551
1563815721181371,-0.848145,-0.331543,0.412598
1563815721205358,-0.84082,-0.325684,0.412598
1563815721226365,-0.834473,-0.32666,0.414063
1563815721249333,-0.834961,-0.329102,0.411621
1563815721264324,-0.839844,-0.322266,0.399902
1563815721287311,-0.833984,-0.327148,0.39502
1563815721301302,-0.839844,-0.325195,0.399902
1563815721338281,-0.842285,-0.328613,0.395996
1563815721346295,-0.836914,-0.331543,0.400879
1563815721361268,-0.839355,-0.333008,0.394043
1563815721384255,-0.84375,-0.333496,0.394531
1563815721407242,-0.842773,-0.338379,0.404297
1563815721421236,-0.830566,-0.339355,0.396484
1563815721444221,-0.837891,-0.341309,0.399414
1563815721467208,-0.835938,-0.34082,0.410645
1563815721481203,-0.834961,-0.335449,0.404785
1563815721504186,-0.838867,-0.339355,0.402344
1563815721527178,-0.845215,-0.341797,0.407227
1563815721548161,-0.848633,-0.346191,0.406738
1563815721564152,-0.849609,-0.348145,0.406738
1563815721570152,-0.842773,-0.342285,0.407227
1563815721600135,-0.837402,-0.337402,0.403809
1563815721615123,-0.839844,-0.339355,0.400391
1563815721637131,-0.836914,-0.339355,0.403809
1563815721652104,-0.835449,-0.335938,0.415039
1563815721669091,-0.847168,-0.338379,0.404785
1563815721693078,-0.847168,-0.338379,0.408691
1563815721712067,-0.845703,-0.339844,0.40625
1563815721729057,-0.844238,-0.344238,0.405273
1563815721750049,-0.841797,-0.342773,0.407715
1563815721772052,-0.836914,-0.341309,0.401855
1563815721789024,-0.833496,-0.334473,0.397461
1563815721817007,-0.842773,-0.34082,0.395996
1563815721832018,-0.847168,-0.344727,0.404297
1563815721855985,-0.850098,-0.339355,0.400391
1563815721869977,-0.846191,-0.342285,0.411133
1563815721893964,-0.847656,-0.342773,0.402344
1563815721908954,-0.844238,-0.34668,0.404785
1563815721929942,-0.841309,-0.34082,0.401855
1563815721951949,-0.836914,-0.34082,0.401367
1563815721968939,-0.829102,-0.345215,0.405273
1563815721989926,-0.836914,-0.34668,0.406738
1563815722011895,-0.842285,-0.34668,0.407227
1563815722028886,-0.844727,-0.341309,0.407715
1563815722049877,-0.84082,-0.341797,0.40625
1563815722079859,-0.837891,-0.341797,0.407715
1563815722089850,-0.838867,-0.345703,0.404297
1563815722110838,-0.835449,-0.347656,0.405762
1563815722156812,-0.837891,-0.340332,0.407227
1563815722158811,-0.836914,-0.345703,0.397949
1563815722170804,-0.84082,-0.344727,0.402832
1563815722191811,-0.833008,-0.341309,0.399902
1563815722209782,-0.834961,-0.342285,0.403809
1563815722229771,-0.841797,-0.344727,0.404785
1563815722251758,-0.839355,-0.34375,0.404297
1563815722269747,-0.835938,-0.347168,0.397949
1563815722289736,-0.840332,-0.344238,0.413086
1563815722311724,-0.837891,-0.344727,0.408203
1563815722329712,-0.838867,-0.337402,0.40918
1563815722349702,-0.839355,-0.341309,0.409668
1563815722371690,-0.845215,-0.344238,0.405762
1563815722389678,-0.838379,-0.348633,0.407227
1563815722412668,-0.836914,-0.348633,0.401855
1563815722431654,-0.842773,-0.345215,0.402832
1563815722450643,-0.837402,-0.348145,0.408691
1563815722470633,-0.843262,-0.350098,0.40332
1563815722492639,-0.836426,-0.348145,0.398926
1563815722509610,-0.833496,-0.349609,0.408203
1563815722529599,-0.837402,-0.349121,0.411621
1563815722552585,-0.835938,-0.349609,0.411621
1563815722569575,-0.834473,-0.349609,0.40332
1563815722589564,-0.837402,-0.345703,0.396484
1563815722612551,-0.837891,-0.342773,0.405762
1563815722643534,-0.841797,-0.341309,0.404297
1563815722649529,-0.838867,-0.347168,0.412109
1563815722672517,-0.837402,-0.348145,0.40625
1563815722690505,-0.837891,-0.350098,0.401367
1563815722717489,-0.839844,-0.344238,0.402832
1563815722733482,-0.834961,-0.340332,0.410156
1563815722754469,-0.835938,-0.349121,0.408691
1563815722771461,-0.841797,-0.352051,0.410156
1563815722787450,-0.842285,-0.351563,0.405762
1563815722810436,-0.838379,-0.349609,0.408203
1563815722831427,-0.840332,-0.345215,0.405273
1563815722847418,-0.838379,-0.354004,0.40625
1563815722870410,-0.831055,-0.350098,0.408203
1563815722891400,-0.828125,-0.348145,0.40918
1563815722907384,-0.836426,-0.352051,0.399414
1563815722930370,-0.830566,-0.351563,0.408203
1563815722951361,-0.83252,-0.34668,0.402832
1563815722967348,-0.836914,-0.351563,0.401367
1563815722990355,-0.831543,-0.350586,0.414063
1563815723012322,-0.830078,-0.349121,0.416016
1563815723033331,-0.833008,-0.351074,0.411133
1563815723063295,-0.837402,-0.351563,0.410645
1563815723078292,-0.82959,-0.348633,0.409668
1563815723086284,-0.831055,-0.351074,0.411133
1563815723117265,-0.833496,-0.349609,0.412598
1563815723131256,-0.838867,-0.351563,0.405762
1563815723147244,-0.835938,-0.352539,0.40332
1563815723169231,-0.833984,-0.353027,0.400879
1563815723192218,-0.834961,-0.354492,0.412598
1563815723206210,-0.833984,-0.358398,0.414063
1563815723229207,-0.836914,-0.353516,0.413086
1563815723258224,-0.836914,-0.358398,0.412109
1563815723266176,-0.833984,-0.361328,0.418457
1563815723289163,-0.833496,-0.36084,0.411133
1563815723335136,-0.836914,-0.364746,0.409668
1563815723337135,-0.835938,-0.358398,0.413086
1563815723349131,-0.835449,-0.360352,0.405273
1563815723372119,-0.833984,-0.35791,0.416992
1563815723386111,-0.827637,-0.358887,0.416504
1563815723415094,-0.827148,-0.35791,0.414063
1563815723432083,-0.825684,-0.365723,0.407227
1563815723446107,-0.830078,-0.365234,0.408203
1563815723470060,-0.833984,-0.361328,0.406738
1563815723492055,-0.828125,-0.370117,0.404297
1563815723506040,-0.827637,-0.366699,0.407227
1563815723529026,-0.827637,-0.366211,0.403809
1563815723552013,-0.831055,-0.360352,0.405273
1563815723579996,-0.827148,-0.359863,0.405762
1563815723588990,-0.830078,-0.361328,0.407715
1563815723617997,-0.835938,-0.362305,0.409668
1563815723641963,-0.829102,-0.362793,0.408691
1563815723656952,-0.829102,-0.362305,0.404297
1563815723671951,-0.839355,-0.362305,0.408203
1563815723692991,-0.834473,-0.36084,0.408203
1563815723708924,-0.831543,-0.362305,0.412109
1563815723731911,-0.834961,-0.364746,0.407227
1563815723752898,-0.828125,-0.359863,0.40625
1563815723768893,-0.822754,-0.367676,0.40332
1563815723798876,-0.832031,-0.368164,0.405273
1563815723812863,-0.831543,-0.366211,0.410156
1563815723828866,-0.822266,-0.362793,0.40918
1563815723857896,-0.824707,-0.367188,0.414063
1563815723873831,-0.833008,-0.367188,0.409668
1563815723888819,-0.82959,-0.368652,0.416504
1563815723911806,-0.824219,-0.366699,0.418457
1563815723934796,-0.822266,-0.366699,0.412109
1563815723949786,-0.830566,-0.370117,0.408691
1563815723971771,-0.83252,-0.365723,0.416504
1563815723994761,-0.828125,-0.367188,0.418457
1563815724009752,-0.83252,-0.372559,0.414551
1563815724031741,-0.836426,-0.374512,0.42334
1563815724054727,-0.830078,-0.365234,0.416016
1563815724076718,-0.830566,-0.364258,0.412109
1563815724099699,-0.832031,-0.357422,0.419922
1563815724114691,-0.832031,-0.36084,0.413086
1563815724128686,-0.819824,-0.361816,0.406738
1563815724151668,-0.816895,-0.350098,0.399902
1563815724174655,-0.82959,-0.347656,0.391113
1563815724188648,-0.833984,-0.345215,0.393555
1563815724212632,-0.83252,-0.342773,0.396484
1563815724235621,-0.822754,-0.348145,0.394531
1563815724248615,-0.824219,-0.348633,0.395996
1563815724271601,-0.819824,-0.350098,0.400879
1563815724301615,-0.827637,-0.346191,0.404785
1563815724308586,-0.833008,-0.34668,0.408691
1563815724332565,-0.833008,-0.35498,0.416016
1563815724354557,-0.833984,-0.367188,0.414551
1563815724368545,-0.830078,-0.36377,0.420898
1563815724391530,-0.82959,-0.368652,0.419434
1563815724414516,-0.830566,-0.368652,0.416992
1563815724435505,-0.827637,-0.373047,0.427246
1563815724451503,-0.82959,-0.365234,0.426758
1563815724474486,-0.828125,-0.366699,0.421875
1563815724495483,-0.833984,-0.367188,0.42627
1563815724519456,-0.831055,-0.364258,0.42041
1563815724541446,-0.828125,-0.357422,0.42334
1563815724555445,-0.825195,-0.350098,0.425781
1563815724571429,-0.817383,-0.333496,0.402344
1563815724601421,-0.838379,-0.356445,0.377441
1563815724615402,-0.818359,-0.355957,0.416016
1563815724639396,-0.797363,-0.37207,0.441406
1563815724654411,-0.818848,-0.396484,0.443359
1563815724675428,-0.833984,-0.385254,0.433594
1563815724691391,-0.848145,-0.362793,0.416992
1563815724714348,-0.849121,-0.365234,0.415039
1563815724735373,-0.850098,-0.374512,0.415527
1563815724751325,-0.836426,-0.387207,0.413086
1563815724774312,-0.841309,-0.395996,0.418457
1563815724795301,-0.834473,-0.387207,0.414063
1563815724811351,-0.82959,-0.364258,0.410645
1563815724834276,-0.810547,-0.370117,0.387207
1563815724855265,-0.805664,-0.381836,0.387207
1563815724871298,-0.808594,-0.364258,0.396973
1563815724894243,-0.78418,-0.373047,0.39502
1563815724915291,-0.771484,-0.387695,0.410645
1563815724932226,-0.740723,-0.414063,0.435547
1563815724954216,-0.803223,-0.424316,0.444824
1563815724977196,-0.833496,-0.428711,0.415527
1563815724993187,-0.848145,-0.404785,0.400879
1563815725014175,-0.875,-0.405762,0.381836
1563815725037165,-0.863281,-0.400879,0.382813
1563815725052152,-0.848633,-0.38623,0.382813
1563815725074144,-0.803223,-0.391113,0.357422
1563815725097128,-0.842285,-0.40625,0.371582
1563815725111119,-0.729004,-0.379883,0.367188
1563815725134107,-0.812012,-0.35791,0.472656
1563815725156092,-0.726074,-0.393066,0.372559
1563815725171083,-0.76123,-0.379883,0.415527
1563815725194070,-0.81543,-0.393066,0.430664
1563815725217057,-0.82373,-0.404785,0.412598
1563815725247044,-0.828125,-0.394043,0.42334
1563815725254037,-0.830078,-0.399414,0.431641
1563815725277027,-0.832031,-0.409668,0.425293
1563815725291014,-0.830078,-0.404785,0.429199
1563815725314002,-0.819336,-0.400391,0.425781
1563815725336990,-0.81543,-0.399902,0.420898
1563815725350988,-0.810059,-0.398926,0.416504
1563815725373969,-0.804688,-0.39502,0.413086
1563815725396955,-0.796875,-0.38623,0.416016
1563815725410947,-0.797852,-0.385254,0.416992
1563815725433932,-0.799805,-0.389648,0.41748
1563815725462922,-0.801758,-0.394043,0.413574
1563815725477911,-0.804199,-0.39209,0.412598
1563815725493901,-0.806152,-0.391602,0.418945
1563815725523894,-0.817383,-0.397461,0.41748
1563815725537876,-0.818848,-0.396973,0.415527
1563815725561860,-0.821289,-0.397949,0.418457
1563815725576851,-0.815918,-0.392578,0.422852
1563815725597842,-0.812012,-0.394043,0.42627
1563815725613851,-0.814941,-0.395996,0.421875
1563815725636817,-0.812988,-0.396973,0.425781
1563815725665799,-0.808105,-0.394043,0.432129
1563815725673816,-0.80127,-0.39502,0.425293
1563815725696782,-0.797363,-0.394531,0.431641
1563815725717770,-0.805176,-0.397949,0.426758
1563815725741758,-0.806152,-0.39502,0.431641
1563815725756748,-0.803223,-0.392578,0.429688
1563815725779736,-0.815918,-0.398926,0.42041
1563815725800729,-0.808594,-0.401855,0.424805
1563815725816713,-0.811035,-0.404297,0.427246
1563815725837702,-0.811523,-0.398926,0.429199
1563815725854692,-0.81543,-0.400879,0.416016
1563815725884677,-0.807129,-0.39209,0.413574
1563815725899665,-0.800293,-0.390625,0.42041
1563815725914664,-0.798828,-0.391602,0.419434
1563815725936648,-0.790527,-0.393555,0.415527
1563815725966635,-0.783691,-0.387207,0.410645
1563815725975621,-0.77002,-0.377441,0.406738
1563815725996613,-0.754883,-0.368164,0.395996
1563815726027593,-0.734375,-0.345703,0.393555
1563815726033589,-0.673828,-0.289551,0.379395
1563815726056576,-0.571289,-0.202148,0.348633
1563815726079562,-0.47998,-0.233398,0.290039
1563815726092554,-0.600098,-0.258301,0.30957
1563815726101549,-0.577148,-0.242188,0.342773
1563815726122540,-0.50293,-0.205566,0.372559
1563815726144530,-0.447266,-0.239746,0.363281
1563815726162514,-0.523438,-0.266602,0.424316
1563815726185502,-0.519531,-0.228516,0.519043
1563815726212507,-0.421387,-0.244141,0.556152
1563815726221488,-0.431641,-0.282227,0.652344
1563815726242472,-0.438965,-0.300781,0.751953
1563815726264478,-0.353516,-0.311523,0.811523
1563815726281447,-0.27832,-0.313965,0.873047
1563815726302456,-0.208984,-0.3125,0.949707
1563815726324422,-0.148926,-0.325195,1.01611
1563815726341417,-0.139648,-0.356934,1.04443
1563815726362401,-0.0776367,-0.321289,1.05762
1563815726384409,0.00292969,-0.26416,1.06885
1563815726407392,0.065918,-0.245605,1.09375
1563815726422365,0.127441,-0.276855,1.08643
1563815726444353,0.158691,-0.265137,1.07813
1563815726467340,0.186035,-0.230469,1.0542
1563815726482331,0.229492,-0.205078,1.05518
1563815726504318,0.268555,-0.221191,1.04053
1563815726521312,0.276367,-0.214844,1.0376
1563815726543296,0.297852,-0.196289,1.0127
1563815726564314,0.308594,-0.15625,0.993164
1563815726581274,0.327148,-0.134766,0.976563
1563815726602262,0.341797,-0.141113,0.97168
1563815726633244,0.343262,-0.145996,0.966309
1563815726641240,0.347656,-0.12793,0.951172
1563815726662228,0.361816,-0.0927734,0.926758
1563815726686213,0.36084,-0.065918,0.909668
1563815726701205,0.351563,-0.0698242,0.897461
1563815726722195,0.345215,-0.0698242,0.891113
1563815726744210,0.344238,-0.0664063,0.891113
1563815726761170,0.340332,-0.0571289,0.883301
1563815726782160,0.337891,-0.0532227,0.877441
1563815726804164,0.351563,-0.0478516,0.871582
1563815726821137,0.363281,-0.0449219,0.856934
1563815726842125,0.368652,-0.0424805,0.848633
1563815726860113,0.366211,-0.0307617,0.845703
1563815726882102,0.376953,-0.0273438,0.835449
1563815726902109,0.380371,-0.0205078,0.821777
1563815726920080,0.375488,-0.00878906,0.829102
1563815726942078,0.366699,-0.0117188,0.82959
1563815726964054,0.375,-0.00830078,0.834473
1563815726980048,0.372559,-0.0112305,0.836426
1563815727003037,0.366699,-0.00830078,0.831055
1563815727022023,0.365234,-0.0151367,0.83252
1563815727040011,0.369629,-0.0195313,0.834473
1563815727062998,0.372559,-0.0161133,0.838379
1563815727089992,0.371582,-0.0219727,0.836914
1563815727099979,0.371094,-0.0200195,0.837891
1563815727128960,0.370117,-0.0205078,0.842773
1563815727141956,0.370605,-0.0219727,0.833984
1563815727159942,0.374512,-0.0214844,0.838867
1563815727182930,0.372559,-0.0224609,0.832031
1563815727201949,0.372559,-0.027832,0.839355
1563815727219910,0.371094,-0.0258789,0.838379
1563815727242897,0.369629,-0.0219727,0.835449
1563815727261885,0.359863,-0.0205078,0.830078
1563815727279874,0.371582,-0.0175781,0.834961
1563815727302861,0.368652,-0.0249023,0.83252
1563815727321858,0.365723,-0.0263672,0.834473
1563815727339841,0.366699,-0.0214844,0.827148
1563815727369823,0.370605,-0.0239258,0.832031
1563815727381825,0.377441,-0.0209961,0.833496
1563815727407801,0.377441,-0.0205078,0.839844
1563815727422793,0.376953,-0.0205078,0.833984
1563815727442782,0.375,-0.0151367,0.83252
1563815727465768,0.375977,-0.0195313,0.830566
1563815727482759,0.369629,-0.0229492,0.83252
1563815727503747,0.368164,-0.0180664,0.833008
1563815727519738,0.365723,-0.0205078,0.835938
1563815727541724,0.366699,-0.0229492,0.83252
1563815727562712,0.366211,-0.0244141,0.836426
1563815727579703,0.365723,-0.0253906,0.83252
1563815727601690,0.368164,-0.0253906,0.840332
1563815727622678,0.366699,-0.027832,0.832031
1563815727639668,0.367676,-0.0268555,0.833008
1563815727661657,0.364258,-0.0249023,0.836426
1563815727699641,0.36377,-0.0283203,0.836426
1563815727702632,0.369629,-0.0288086,0.837402
1563815727721623,0.373535,-0.0283203,0.837891
1563815727744609,0.370117,-0.0205078,0.833496
1563815727759599,0.368652,-0.0219727,0.833496
1563815727781590,0.373535,-0.03125,0.833496
1563815727804573,0.37207,-0.0263672,0.836914
1563815727819585,0.370117,-0.0283203,0.834961
1563815727841552,0.37207,-0.0244141,0.833984
1563815727864560,0.369141,-0.0234375,0.83252
1563815727879530,0.373047,-0.0288086,0.834473
1563815727901518,0.374512,-0.0288086,0.833984
1563815727924505,0.367676,-0.0263672,0.833496
1563815727938496,0.369141,-0.0249023,0.834961
1563815727962482,0.367676,-0.0249023,0.829102
1563815727984470,0.366211,-0.0234375,0.830078
1563815727998462,0.36377,-0.0263672,0.833008
1563815728022448,0.36084,-0.0317383,0.832031
1563815728044435,0.366699,-0.0263672,0.837891
1563815728058427,0.362305,-0.0283203,0.834961
1563815728081418,0.366699,-0.0268555,0.839355
1563815728104402,0.370117,-0.0234375,0.83252
1563815728118412,0.370605,-0.0244141,0.83252
1563815728141379,0.36377,-0.0268555,0.837402
1563815728164366,0.366211,-0.0268555,0.839355
1563815728186354,0.366211,-0.0249023,0.829102
1563815728201344,0.366211,-0.0214844,0.82666
1563815728224331,0.372559,-0.0258789,0.838867
1563815728239324,0.37207,-0.0288086,0.830078
1563815728261311,0.371582,-0.0253906,0.836426
1563815728284297,0.371582,-0.0253906,0.837402
1563815728305286,0.366699,-0.0200195,0.842285
1563815728321276,0.365723,-0.0234375,0.835938
1563815728351260,0.365234,-0.0268555,0.833008
1563815728365252,0.362793,-0.0229492,0.835449
1563815728381241,0.367676,-0.0224609,0.834961
1563815728404228,0.36084,-0.0244141,0.844727
1563815728434211,0.370117,-0.0292969,0.843262
1563815728441208,0.368652,-0.0249023,0.841309
1563815728464194,0.369629,-0.0234375,0.834473
1563815728485181,0.370605,-0.0229492,0.835938
1563815728502172,0.371582,-0.0224609,0.835938
1563815728524159,0.374023,-0.0249023,0.837402
1563815728545167,0.374512,-0.0249023,0.842285
1563815728562138,0.370117,-0.0239258,0.833496
1563815728584125,0.371094,-0.0175781,0.834961
1563815728605113,0.374023,-0.0209961,0.836914
1563815728622103,0.368164,-0.0224609,0.840332
1563815728644090,0.366699,-0.0219727,0.839355
1563815728665082,0.359863,-0.0283203,0.837402
1563815728682069,0.367676,-0.0297852,0.83252
1563815728704057,0.369141,-0.0263672,0.829102
1563815728725044,0.369629,-0.0283203,0.832031
1563815728742037,0.371582,-0.0263672,0.83252
1563815728764023,0.37207,-0.0185547,0.836914
1563815728794006,0.373047,-0.0229492,0.833984
1563815728802007,0.369629,-0.0239258,0.835938
1563815728823988,0.369629,-0.0268555,0.831543
1563815728846977,0.369629,-0.0273438,0.825195
1563815728861966,0.370117,-0.0307617,0.833496
1563815728883953,0.368652,-0.0249023,0.829102
1563815728906941,0.368652,-0.0292969,0.83252
1563815728920932,0.372559,-0.0258789,0.833008
1563815728943919,0.374023,-0.03125,0.828125
1563815728966909,0.373047,-0.0229492,0.836426
1563815728980898,0.372559,-0.0244141,0.834961
1563815729003885,0.369629,-0.0258789,0.832031
1563815729026871,0.374512,-0.0273438,0.835938
1563815729040866,0.371582,-0.0273438,0.832031
1563815729063851,0.376953,-0.0253906,0.836426
1563815729086838,0.370117,-0.0249023,0.828613
1563815729100830,0.371094,-0.0263672,0.836914
1563815729124818,0.369141,-0.0283203,0.833984
1563815729146836,0.364746,-0.0253906,0.836914
1563815729160801,0.370117,-0.0288086,0.82959
1563815729183809,0.36377,-0.0273438,0.832031
1563815729206771,0.37207,-0.0268555,0.839844
1563815729220760,0.367676,-0.0249023,0.830566
1563815729243751,0.369141,-0.0297852,0.835938
1563815729266734,0.366699,-0.0229492,0.836914
1563815729295716,0.369141,-0.0244141,0.835938
1563815729303713,0.370117,-0.0258789,0.834473
1563815729326699,0.372559,-0.0239258,0.82959
1563815729349686,0.374512,-0.0253906,0.832031
1563815729364679,0.374023,-0.0205078,0.833008
1563815729386666,0.373047,-0.0258789,0.831543
1563815729409652,0.37207,-0.0307617,0.830078
1563815729424643,0.365234,-0.0283203,0.831055
1563815729446631,0.368652,-0.0239258,0.83252
1563815729467618,0.373047,-0.027832,0.833496
1563815729484610,0.370605,-0.0273438,0.831543
1563815729506596,0.368164,-0.0244141,0.837402
1563815729527585,0.368652,-0.0229492,0.830078
1563815729544575,0.368164,-0.0268555,0.833496
1563815729566562,0.373047,-0.0263672,0.834961
1563815729587550,0.373535,-0.0273438,0.835449
1563815729604541,0.374512,-0.0219727,0.834961
1563815729627527,0.374023,-0.0239258,0.831543
1563815729649515,0.371094,-0.0224609,0.833496
1563815729664506,0.371582,-0.0292969,0.833496
1563815729686493,0.373047,-0.0229492,0.829102
1563815729709480,0.374023,-0.0253906,0.828613
1563815729724472,0.373047,-0.0239258,0.828125
1563815729746458,0.368164,-0.027832,0.832031
1563815729769446,0.370605,-0.0224609,0.835449
1563815729784441,0.374512,-0.0292969,0.833496
1563815729806424,0.371582,-0.0273438,0.833496
1563815729829411,0.375488,-0.0288086,0.833496
1563815729851398,0.371582,-0.0263672,0.839355
1563815729867389,0.371094,-0.027832,0.83252
1563815729889376,0.371582,-0.0307617,0.837402
1563815729904370,0.365723,-0.0288086,0.830566
1563815729926356,0.369141,-0.0288086,0.834473
1563815729949343,0.370605,-0.0292969,0.834961
1563815729963335,0.374512,-0.0288086,0.833008
1563815729986329,0.374023,-0.0239258,0.835449
1563815730015305,0.369629,-0.0307617,0.827637
1563815730023301,0.375,-0.027832,0.837402
1563815730046288,0.374512,-0.0258789,0.831543
1563815730069276,0.376953,-0.027832,0.830566
1563815730083266,0.374023,-0.027832,0.834961
1563815730106275,0.371582,-0.0268555,0.832031
1563815730129240,0.375,-0.0292969,0.833984
1563815730143239,0.374023,-0.0283203,0.83252
1563815730167221,0.373047,-0.0288086,0.830566
1563815730189205,0.374512,-0.0244141,0.828613
1563815730210253,0.375488,-0.0302734,0.832031
1563815730227185,0.369141,-0.027832,0.830566
1563815730257168,0.37207,-0.0258789,0.834473
1563815730270182,0.371582,-0.0239258,0.834961
1563815730294150,0.37793,-0.0263672,0.83252
1563815730309138,0.380371,-0.0224609,0.82959
1563815730330164,0.376465,-0.0268555,0.828613
1563815730347123,0.373047,-0.0239258,0.831055
1563815730369103,0.376465,-0.0258789,0.830566
1563815730390091,0.376465,-0.0234375,0.823242
1563815730407081,0.375,-0.0239258,0.824707
1563815730429070,0.379883,-0.0249023,0.829102
1563815730458051,0.380371,-0.0292969,0.833984
1563815730467046,0.380859,-0.0288086,0.831055
1563815730489033,0.376465,-0.0297852,0.833008
1563815730510023,0.376465,-0.0307617,0.834961
1563815730527014,0.375488,-0.034668,0.830078
1563815730548999,0.377441,-0.0297852,0.832031
1563815730569986,0.374512,-0.027832,0.828125
1563815730576982,0.370117,-0.0273438,0.834473
1563815730591974,0.370605,-0.0302734,0.842773
1563815730614980,0.368164,-0.0322266,0.844727
1563815730636948,0.368652,-0.0351563,0.84082
1563815730651940,0.370605,-0.0268555,0.84082
1563815730681921,0.365723,-0.0263672,0.836426
1563815730696917,0.370117,-0.0332031,0.84082
1563815730711924,0.370605,-0.0327148,0.841309
1563815730744886,0.376465,-0.0371094,0.84082
1563815730756898,0.372559,-0.0336914,0.835449
1563815730771890,0.378906,-0.0307617,0.833008
1563815730795859,0.380371,-0.0288086,0.834961
1563815730816891,0.378418,-0.03125,0.825195
1563815730831841,0.380371,-0.0307617,0.831055
1563815730854828,0.375977,-0.0327148,0.82666
1563815730876834,0.374023,-0.0361328,0.82373
1563815730891846,0.376953,-0.0317383,0.822754
1563815730914850,0.378906,-0.0332031,0.822754
1563815730936778,0.37207,-0.0283203,0.825684
1563815730951769,0.373535,-0.0390625,0.824219
1563815730974795,0.373535,-0.0419922,0.821777
1563815730996775,0.37793,-0.0322266,0.82959
1563815731013734,0.379395,-0.0317383,0.829102
1563815731034722,0.373535,-0.0385742,0.833008
1563815731052712,0.374512,-0.0341797,0.834961
1563815731074699,0.375,-0.0336914,0.832031
1563815731095685,0.376953,-0.0356445,0.834473
1563815731112677,0.379883,-0.034668,0.836914
1563815731132686,0.375488,-0.03125,0.83252
1563815731154661,0.378418,-0.0356445,0.837891
1563815731172646,0.376465,-0.0385742,0.835449
1563815731192637,0.377441,-0.0395508,0.836914
1563815731214650,0.374512,-0.0385742,0.842285
1563815731239604,0.369629,-0.0400391,0.833496
1563815731253597,0.373535,-0.0405273,0.838379
1563815731274584,0.367676,-0.0473633,0.843262
1563815731292574,0.385742,-0.050293,0.839844
1563815731313559,0.365723,-0.050293,0.853027
1563815731334548,0.365723,-0.0556641,0.858398
1563815731352537,0.359863,-0.0922852,0.897949
1563815731373525,0.350098,-0.174316,0.955566
1563815731394574,0.319824,-0.240234,1.01758
1563815731412505,0.284668,-0.266113,1.04492
1563815731433492,0.261719,-0.231445,1.0542
1563815731454481,0.27832,-0.192383,1.06738
1563815731472470,0.280273,-0.199707,1.11279
1563815731493457,0.265625,-0.254883,1.15039
1563815731514446,0.244141,-0.301758,1.18896
1563815731532435,0.185059,-0.311035,1.20801
1563815731553445,0.148926,-0.275879,1.23779
1563815731574447,0.144043,-0.23877,1.21143
1563815731592399,0.108887,-0.22998,1.18213
1563815731615390,0.0761719,-0.234375,1.16699
1563815731634417,0.034668,-0.250488,1.14795
1563815731652375,-0.0112305,-0.256348,1.10986
1563815731682350,-0.0219727,-0.240723,1.07422
1563815731694350,-0.0390625,-0.245605,1.02881
1563815731712331,-0.0561523,-0.229004,0.960449
1563815731735351,-0.0854492,-0.231934,0.898438
1563815731754340,-0.130859,-0.251953,0.844727
1563815731772304,-0.178711,-0.262207,0.782715
1563815731795285,-0.228516,-0.26709,0.732422
1563815731814274,-0.25,-0.293457,0.671875
1563815731832272,-0.300293,-0.318359,0.638184
1563815731855254,-0.341309,-0.350098,0.594727
1563815731874241,-0.368652,-0.365234,0.549316
1563815731892241,-0.407227,-0.377441,0.508789
1563815731915216,-0.428223,-0.388184,0.472168
1563815731934204,-0.459961,-0.407715,0.44873
1563815731957190,-0.500488,-0.429688,0.410156
1563815731975180,-0.536133,-0.430664,0.388672
1563815731995169,-0.546875,-0.45459,0.37207
1563815732012160,-0.567383,-0.475586,0.344238
1563815732034146,-0.586914,-0.49707,0.333496
1563815732055156,-0.605957,-0.507324,0.319336
1563815732072125,-0.62207,-0.509766,0.302734
1563815732094112,-0.64502,-0.519531,0.293457
1563815732123095,-0.666992,-0.537109,0.294434
1563815732139086,-0.692383,-0.558594,0.312988
1563815732155084,-0.706543,-0.578613,0.31543
1563815732183061,-0.729004,-0.604004,0.323242
1563815732192062,-0.760742,-0.619141,0.334473
1563815732214045,-0.765137,-0.632324,0.34375
1563815732237031,-0.758789,-0.626953,0.357422
1563815732254043,-0.749023,-0.61377,0.356445
1563815732274012,-0.740234,-0.61377,0.359375
1563815732295019,-0.736816,-0.623535,0.348633
1563815732310988,-0.737305,-0.619141,0.339355
1563815732333975,-0.737793,-0.623047,0.325684
1563815732354975,-0.731445,-0.617188,0.305664
1563815732371962,-0.731445,-0.625488,0.286621
1563815732401956,-0.740723,-0.621094,0.279297
1563815732416927,-0.740723,-0.626953,0.261719
1563815732430921,-0.729004,-0.646484,0.251465
1563815732461920,-0.722656,-0.661621,0.230469
1563815732474901,-0.723633,-0.655762,0.223633
1563815732490883,-0.741699,-0.650391,0.225098
1563815732513871,-0.749023,-0.663086,0.228516
1563815732536859,-0.754883,-0.683105,0.232422
1563815732550849,-0.765137,-0.722168,0.231934
1563815732573837,-0.796875,-0.745117,0.233398
1563815732597825,-0.841309,-0.749023,0.244141
1563815732610815,-0.854492,-0.749023,0.248047
1563815732633802,-0.845215,-0.765137,0.263672
1563815732656789,-0.868652,-0.810059,0.275391
1563815732678790,-0.901855,-0.851074,0.294922
1563815732701764,-0.864746,-0.854004,0.29541
1563815732716758,-0.808594,-0.818848,0.284668
1563815732730747,-0.784668,-0.813477,0.260742
1563815732754739,-0.713867,-0.836426,0.230469
1563815732776720,-0.609375,-0.881836,0.198242
1563815732797712,-0.562988,-0.864258,0.182129
1563815732814703,-0.577637,-0.844727,0.14502
1563815732844681,-0.604492,-0.829102,0.100098
1563815732866698,-0.629883,-0.754883,0.0952148
1563815732883659,-0.69873,-0.658203,0.0849609
1563815732896651,-0.737305,-0.583984,0.059082
1563815732917639,-0.75293,-0.536621,0.0219727
1563815732934630,-0.762695,-0.467285,-0.012207
1563815732957624,-0.781738,-0.38916,-0.0429688
1563815732977635,-0.816406,-0.324219,-0.0961914
1563815732994597,-0.819824,-0.281738,-0.118652
1563815733017584,-0.836426,-0.26123,-0.138672
1563815733037578,-0.84082,-0.250977,-0.164063
1563815733054563,-0.841309,-0.222656,-0.170898
1563815733076550,-0.865234,-0.201172,-0.1875
1563815733099537,-0.913574,-0.17627,-0.225098
1563815733121524,-0.922363,-0.160156,-0.273926
1563815733136517,-0.928711,-0.136719,-0.293945
1563815733157511,-0.931641,-0.13623,-0.319336
1563815733187487,-0.933105,-0.143066,-0.331055
1563815733196481,-0.934082,-0.144043,-0.364746
1563815733217490,-0.961914,-0.135254,-0.398926
1563815733234457,-0.95459,-0.12207,-0.429688
1563815733256445,-0.913086,-0.130859,-0.442871
1563815733277433,-0.90625,-0.158203,-0.407715
1563815733294423,-0.950195,-0.177734,-0.398438
1563815733316415,-0.949219,-0.151855,-0.437012
1563815733337403,-0.91748,-0.145508,-0.418945
1563815733354395,-0.928711,-0.225098,-0.362793
1563815733376376,-0.983398,-0.260254,-0.355469
1563815733397365,-0.97998,-0.224121,-0.364746
1563815733413355,-0.962891,-0.205566,-0.363281
1563815733436343,-0.969727,-0.253906,-0.358398
1563815733458329,-0.981445,-0.293457,-0.334961
1563815733488319,-0.973145,-0.289063,-0.336426
1563815733496311,-0.950195,-0.276855,-0.34082
1563815733519295,-0.931152,-0.29248,-0.343262
1563815733533311,-0.957031,-0.291992,-0.333008
1563815733564270,-0.958496,-0.278809,-0.325195
1563815733579261,-0.941895,-0.270996,-0.317871
1563815733593252,-0.957031,-0.287109,-0.329102
1563815733624235,-0.922363,-0.268066,-0.333984
1563815733639248,-0.890137,-0.249023,-0.356445
1563815733654219,-0.856445,-0.225098,-0.398926
1563815733677227,-0.8125,-0.182617,-0.415039
1563815733699192,-0.800781,-0.161133,-0.420898
1563815733713184,-0.789063,-0.15332,-0.409668
1563815733737170,-0.723145,-0.183594,-0.412109
1563815733767155,-0.612793,-0.208496,-0.414063
1563815733788197,-0.495605,-0.222656,-0.392578
1563815733804136,-0.493652,-0.15625,-0.348633
1563815733819123,-0.634766,-0.0249023,-0.274902
1563815733842112,-0.630371,0.0302734,-0.253418
1563815733858101,-0.504883,0.03125,-0.142578
1563815733879108,-0.455566,0,-0.00830078
1563815733902077,-0.573242,-0.0537109,0.0986328
1563815733917067,-0.625488,-0.0546875,0.208008
1563815733939062,-0.577637,-0.0419922,0.314941
1563815733960102,-0.67627,-0.0234375,0.39502
1563815733984030,-0.772949,-0.0239258,0.476074
1563815733999021,-0.681641,-0.000488281,0.585449
1563815734020049,-0.625977,-0.0649414,0.680664
1563815734036998,-0.753418,-0.0717773,0.786621
1563815734058985,-0.720215,-0.043457,0.836426
1563815734079973,-0.500977,-0.0234375,0.871582
1563815734096964,-0.484375,-0.0483398,0.963867
1563815734141936,-0.563477,-0.0356445,1.05029
1563815734148933,-0.44873,-0.00292969,1.13379
1563815734163924,-0.237793,-0.0371094,1.10889
1563815734180915,-0.222656,-0.0664063,1.20264
1563815734199909,-0.231445,-0.0649414,1.27197
1563815734216895,-0.104492,-0.0600586,1.25586
1563815734244880,-0.0302734,-0.0473633,1.27393
1563815734261887,-0.00976563,-0.0566406,1.30615
1563815734276859,-0.00195313,-0.0546875,1.33594
1563815734298847,-0.0258789,-0.0644531,1.32861
1563815734320866,-0.00292969,-0.0664063,1.32959
1563815734351829,0.0522461,-0.0888672,1.30078
1563815734364811,0.0292969,-0.0771484,1.29736
1563815734379800,0.0078125,-0.0615234,1.29346
1563815734395791,0.0454102,-0.0708008,1.25635
1563815734418782,0.034668,-0.0664063,1.20801
1563815734441768,0.0224609,-0.0620117,1.15381
1563815734456756,0.0429688,-0.043457,1.09277
1563815734478744,0.0795898,-0.0229492,1.03906
1563815734501730,0.115234,0.00732422,1.00195
1563815734515732,0.104492,0.0263672,0.967773
1563815734538721,0.0844727,0.0473633,0.954102
1563815734561698,0.111328,0.0673828,0.9375
1563815734575692,0.149414,0.0869141,0.903809
1563815734598677,0.1875,0.0805664,0.871094
1563815734621675,0.17041,0.0844727,0.864258
1563815734635654,0.174805,0.090332,0.852051
1563815734659641,0.193848,0.0932617,0.854492
1563815734681627,0.185059,0.090332,0.849121
1563815734695624,0.18457,0.0898438,0.857422
1563815734719608,0.198242,0.0932617,0.85498
1563815734741594,0.197266,0.0859375,0.873047
1563815734755585,0.172852,0.0771484,0.887695
1563815734779574,0.156738,0.0683594,0.897949
1563815734801560,0.161133,0.0664063,0.901367
1563815734815555,0.168945,0.0634766,0.90625
1563815734839549,0.168457,0.0678711,0.908691
1563815734861525,0.168457,0.0683594,0.90918
1563815734876517,0.16748,0.0703125,0.907715
1563815734899502,0.158691,0.0615234,0.914063
1563815734921490,0.15625,0.0541992,0.90332
1563815734942508,0.157715,0.0585938,0.901855
1563815734959467,0.164063,0.0639648,0.899414
1563815734981457,0.166504,0.0678711,0.898926
1563815735010442,0.166992,0.0649414,0.89502
1563815735026432,0.161133,0.0668945,0.885254
1563815735041420,0.156738,0.0625,0.888184
1563815735062410,0.166016,0.0649414,0.89502
1563815735069425,0.171387,0.0654297,0.887695
1563815735084401,0.169922,0.0610352,0.88916
1563815735107383,0.169434,0.0644531,0.883301
1563815735131371,0.17041,0.0737305,0.882324
1563815735144367,0.166016,0.0761719,0.879395
1563815735174386,0.164551,0.0673828,0.884766
1563815735185339,0.162598,0.0620117,0.888672
1563815735204363,0.166016,0.0683594,0.88916
1563815735227316,0.163086,0.0722656,0.890625
1563815735245309,0.161621,0.0727539,0.887695
1563815735272290,0.163086,0.0668945,0.896973
1563815735288283,0.161133,0.0703125,0.896973
1563815735305306,0.159668,0.0634766,0.893066
1563815735324291,0.158203,0.0678711,0.899414
1563815735347260,0.158203,0.0683594,0.89502
1563815735365238,0.161133,0.0673828,0.899414
1563815735384285,0.157227,0.0693359,0.894531
1563815735407214,0.156738,0.0717773,0.889648
1563815735425202,0.155762,0.0649414,0.894043
1563815735444192,0.155762,0.0668945,0.88916
1563815735467238,0.161133,0.0708008,0.894531
1563815735485171,0.164551,0.0708008,0.88623
1563815735512175,0.163574,0.0698242,0.888184
1563815735527205,0.163086,0.0698242,0.88623
1563815735545155,0.163086,0.0795898,0.885742
1563815735567123,0.162109,0.0712891,0.883301
1563815735595105,0.161133,0.0727539,0.888184
1563815735605100,0.165039,0.0737305,0.88916
1563815735625088,0.164063,0.0830078,0.883301
1563815735647076,0.166504,0.0825195,0.884277
1563815735665064,0.165039,0.0742188,0.88916
1563815735686052,0.161621,0.0742188,0.887695
1563815735707040,0.168457,0.0712891,0.889648
1563815735732026,0.165527,0.0717773,0.890625
1563815735745027,0.169434,0.0727539,0.894043
1563815735767065,0.168945,0.0698242,0.89209
1563815735792013,0.164063,0.0668945,0.890625
1563815735811984,0.164063,0.0654297,0.897949
1563815735826971,0.164063,0.0664063,0.894531
1563815735844961,0.164063,0.0708008,0.890625
1563815735864973,0.15918,0.0668945,0.891113
1563815735886943,0.163086,0.0698242,0.892578
1563815735912935,0.160645,0.0688477,0.890625
1563815735924976,0.160156,0.0644531,0.890625
1563815735946903,0.164063,0.0625,0.894043
1563815735964925,0.162109,0.0703125,0.894043
1563815735985882,0.176758,0.0688477,0.892578
1563815736006869,0.168945,0.0673828,0.887695
1563815736024860,0.168457,0.0703125,0.888184
1563815736045846,0.164063,0.0683594,0.892578
1563815736069835,0.163086,0.065918,0.894043
1563815736084822,0.162109,0.0664063,0.899414
1563815736105820,0.164063,0.0673828,0.892578
1563815736126859,0.163574,0.0668945,0.887207
1563815736149788,0.161133,0.0703125,0.887695
1563815736165778,0.163086,0.0727539,0.892578
1563815736188765,0.152344,0.065918,0.890625
1563815736204756,0.161133,0.0673828,0.894043
1563815736225744,0.165527,0.0698242,0.892578
1563815736246732,0.160156,0.0732422,0.888672
1563815736264722,0.158203,0.0717773,0.89502
1563815736287709,0.160645,0.0649414,0.891113
1563815736306705,0.159668,0.065918,0.892578
1563815736324688,0.162109,0.0610352,0.884766
1563815736347674,0.159668,0.0649414,0.891113
1563815736366669,0.161133,0.0756836,0.879883
1563815736384653,0.160156,0.0712891,0.887695
1563815736429635,0.15918,0.0708008,0.888184
1563815736431631,0.158691,0.0668945,0.893555
1563815736444619,0.165039,0.074707,0.892578
1563815736467606,0.164551,0.0693359,0.887695
1563815736487598,0.162109,0.0732422,0.887207
1563815736512581,0.163086,0.0732422,0.894043
1563815736526574,0.158691,0.0717773,0.890137
1563815736547557,0.158691,0.0654297,0.89502
1563815736564570,0.15918,0.0629883,0.888672
1563815736586540,0.160645,0.0708008,0.895508
1563815736607548,0.162598,0.0683594,0.89209
1563815736624537,0.157715,0.0678711,0.898926
1563815736654496,0.157715,0.0722656,0.891602
1563815736661501,0.161133,0.0639648,0.89209
1563815736684479,0.157227,0.0683594,0.897949
1563815736706466,0.164063,0.0664063,0.893555
1563815736721462,0.156738,0.0727539,0.888184
1563815736743507,0.163086,0.0727539,0.89502
1563815736766436,0.163086,0.0615234,0.894043
1563815736781425,0.163086,0.0654297,0.889648
1563815736804411,0.15918,0.0688477,0.892578
1563815736826399,0.160156,0.0683594,0.895508
1563815736847446,0.155273,0.0698242,0.897949
1563815736864385,0.151855,0.0771484,0.899414
1563815736886365,0.158691,0.0957031,0.915527
1563815736907353,0.134277,0.0961914,0.918457
1563815736923342,0.126465,0.100098,0.929688
1563815736954328,0.129395,0.111816,0.946777
1563815736968317,0.114258,0.13916,0.965332
1563815736984307,0.0488281,0.145508,0.96582
1563815737006297,-0.0463867,0.146484,0.896484
1563815737027287,-0.0981445,0.226563,0.855469
1563815737044277,-0.0922852,0.305176,0.838867
1563815737066259,-0.0874023,0.327148,0.847168
1563815737087256,-0.0639648,0.306152,0.847656
1563815737104244,-0.0361328,0.313477,0.855469
1563815737126247,-0.0527344,0.343262,0.842773
1563815737148232,-0.03125,0.371582,0.831543
1563815737164203,0.0371094,0.38916,0.874512
1563815737186192,0.0107422,0.326172,0.881836
1563815737208179,0.0185547,0.266602,0.868164
1563815737230165,0.074707,0.252441,0.869629
1563815737247163,0.0825195,0.253418,0.858398
1563815737269144,0.0859375,0.254395,0.834961
1563815737283136,0.11084,0.239746,0.847656
1563815737313119,0.117676,0.20459,0.843262
1563815737329120,0.120605,0.169434,0.852539
1563815737343100,0.121582,0.166504,0.859863
1563815737367093,0.114258,0.178223,0.868164
1563815737398070,0.0961914,0.189941,0.859375
1563815737404070,0.0874023,0.205078,0.864746
1563815737428055,0.0634766,0.219238,0.866211
1563815737457037,0.0532227,0.216797,0.86377
1563815737463097,0.0561523,0.213867,0.854492
1563815737487020,-0.0571289,0.211914,0.878418
1563815737509008,-0.09375,0.209473,0.862793
1563815737522998,0.0546875,0.247559,0.834961
1563815737546985,-0.0717773,0.234863,0.87793
1563815737570980,0.0805664,0.288574,0.869141
1563815737583963,-0.015625,0.253418,0.821777
1563815737606949,-0.015625,0.242188,0.858887
1563815737628937,0.00244141,0.238281,0.869141
1563815737643940,-0.00683594,0.225098,0.873047
1563815737673911,-0.0131836,0.235352,0.873535
1563815737688907,-0.0258789,0.250977,0.878906
1563815737709920,-0.0253906,0.251465,0.879395
1563815737732877,-0.0209961,0.249023,0.887695
1563815737748868,-0.0224609,0.236328,0.887207
1563815737769859,-0.0219727,0.230957,0.887695
1563815737786846,-0.0146484,0.238281,0.88916
1563815737808833,-0.0126953,0.238281,0.885742
1563815737829851,-0.00634766,0.23291,0.886719
1563815737846812,0,0.237305,0.884277
1563815737869807,0.0175781,0.244141,0.879883
1563815737889789,0.0214844,0.248047,0.881836
1563815737906778,0.0283203,0.244141,0.883301
1563815737928764,0.0239258,0.23877,0.880859
1563815737951752,0.0185547,0.230957,0.875977
1563815737966746,0.0170898,0.229492,0.87793
1563815737988733,0.0297852,0.22998,0.875
1563815738009749,0.0317383,0.233398,0.870117
1563815738026708,0.0322266,0.238281,0.872559
1563815738048697,0.0283203,0.232422,0.869141
1563815738070683,0.0288086,0.234863,0.864258
1563815738092672,0.0239258,0.224609,0.865234
1563815738109661,0.0336914,0.226563,0.866699
1563815738130649,0.0341797,0.222168,0.874023
1563815738146641,0.034668,0.21875,0.878418
1563815738169630,0.0307617,0.223633,0.882324
1563815738190618,0.0297852,0.226563,0.881836
1563815738205609,0.0268555,0.229492,0.875
1563815738229592,0.0292969,0.22998,0.87207
1563815738251587,0.0229492,0.227051,0.87793
1563815738266572,0.0273438,0.226074,0.875488
1563815738289560,0.0229492,0.231934,0.874023
1563815738311550,0.0229492,0.228516,0.870605
1563815738326538,0.0258789,0.228516,0.878418
1563815738349525,0.0258789,0.233887,0.873047
1563815738371513,0.0239258,0.23291,0.883301
1563815738392504,0.027832,0.228516,0.876465
1563815738409490,0.0268555,0.22998,0.876953
1563815738431479,0.0244141,0.235352,0.874512
1563815738446470,0.0205078,0.248047,0.876465
1563815738469466,0.0205078,0.26709,0.880371
1563815738492442,0.0126953,0.268066,0.878418
1563815738512452,-0.000976563,0.255859,0.883301
1563815738529426,-0.000976563,0.251953,0.869629
1563815738551409,0.034668,0.265137,0.870117
1563815738572396,0.0146484,0.275879,0.868164
1563815738589386,-0.0849609,0.23291,0.883789
1563815738619372,0.0507813,0.125,0.865234
1563815738632365,-0.0317383,-0.0117188,0.899902
1563815738649356,-0.00927734,-0.0229492,0.904297
1563815738673342,0.0302734,0.204102,0.902832
1563815738693350,0.0253906,0.397949,0.86377
1563815738709318,0.0209961,0.36084,0.849609
1563815738731312,0.0249023,0.217285,0.881836
1563815738752294,-0.0375977,0.17041,0.897949
1563815738769284,-0.0317383,0.220703,0.901855
1563815738791270,-0.0581055,0.250977,0.826172
1563815738814257,0.116699,0.257813,0.905762
1563815738829251,-0.0551758,0.186523,0.842773
1563815738851235,0.00976563,0.201172,0.875488
1563815738873231,0.00878906,0.193359,0.897461
1563815738897211,-0.0209961,0.210938,0.900391
1563815738911207,-0.0322266,0.204102,0.893555
1563815738933218,-0.0317383,0.196777,0.871582
1563815738949185,-0.0332031,0.197754,0.875
1563815738972169,-0.027832,0.219238,0.874023
1563815738995155,-0.00878906,0.21875,0.873535
1563815739009156,0.00439453,0.214844,0.869629
1563815739032133,0.000976563,0.208496,0.874512
1563815739060138,0.00683594,0.211914,0.875
1563815739076112,-0.000488281,0.222168,0.871582
1563815739092102,-0.000976563,0.229004,0.875
1563815739112090,0.00341797,0.221191,0.873047
1563815739136078,0.00390625,0.213867,0.878418
1563815739152064,0.0078125,0.209473,0.882813
1563815739174052,0.00683594,0.201172,0.88916
1563815739189043,0.00634766,0.208984,0.884277
1563815739212030,0.00878906,0.211426,0.884766
1563815739234021,0.00732422,0.207031,0.883789
1563815739249009,0.0102539,0.214355,0.891602
1563815739271997,0.015625,0.20459,0.887207
1563815739293983,0.0131836,0.20459,0.882324
1563815739308976,0.0131836,0.208008,0.884277
1563815739338960,0.0131836,0.215332,0.880371
1563815739353949,0.0117188,0.214844,0.881348
1563815739368947,0.00976563,0.211914,0.879395
1563815739398927,0.0102539,0.211426,0.882813
1563815739413916,0.0078125,0.213379,0.874512
1563815739428905,0.00830078,0.209961,0.872559
1563815739451897,0.0107422,0.209961,0.876953
1563815739473879,0.0141602,0.208984,0.879883
1563815739488871,0.0170898,0.205566,0.879395
1563815739511857,0.0185547,0.208496,0.885254
1563815739534844,0.0200195,0.20752,0.878418
1563815739548840,0.0136719,0.210938,0.879395
1563815739578822,0.0131836,0.213867,0.879883
1563815739579819,0.019043,0.212402,0.884277
1563815739600813,0.0195313,0.214355,0.881348
1563815739617796,0.0200195,0.20752,0.880371
1563815739636808,0.0170898,0.212891,0.879883
1563815739659775,0.0205078,0.207031,0.882813
1563815739675763,0.0205078,0.20459,0.887207
1563815739713745,0.0219727,0.202148,0.886719
1563815739727755,0.0209961,0.206543,0.882813
1563815739743724,0.0224609,0.205566,0.885742
1563815739756718,0.0253906,0.205566,0.887695
1563815739779705,0.0229492,0.20166,0.887695
1563815739795694,0.0234375,0.205078,0.87793
1563815739816683,0.0224609,0.205566,0.876465
1563815739842670,0.0273438,0.210938,0.875
1563815739855660,0.0283203,0.208496,0.875488
1563815739876646,0.03125,0.203125,0.875977
1563815739899639,0.0307617,0.205566,0.870605
1563815739916626,0.0292969,0.206055,0.879883
1563815739936613,0.0332031,0.211914,0.877441
1563815739959603,0.0356445,0.213867,0.875
1563815739990583,0.0380859,0.212891,0.876465
1563815740004594,0.0380859,0.203125,0.880371
1563815740022564,0.0366211,0.202148,0.877441
1563815740035560,0.0419922,0.206543,0.882324
1563815740056544,0.0400391,0.205566,0.87793
1563815740079573,0.0341797,0.20752,0.883789
1563815740097522,0.0385742,0.204102,0.880371
1563815740119516,0.0400391,0.205566,0.890137
1563815740139527,0.0302734,0.200684,0.897949
1563815740157487,0.0336914,0.19873,0.897461
1563815740184472,0.0341797,0.199219,0.89502
1563815740199463,0.0361328,0.203125,0.89502
1563815740217452,0.0424805,0.204102,0.887207
1563815740253432,0.0415039,0.206055,0.883789
1563815740259485,0.0483398,0.203613,0.877441
1563815740285419,0.0537109,0.206543,0.879395
1563815740300424,0.0541992,0.199707,0.879883
1563815740319452,0.0571289,0.203125,0.869629
1563815740337383,0.0556641,0.197754,0.873047
1563815740357414,0.0639648,0.202148,0.873535
1563815740379393,0.0556641,0.194336,0.872559
1563815740397357,0.0561523,0.196777,0.869141
1563815740417338,0.0576172,0.194824,0.872559
1563815740447322,0.0576172,0.192383,0.876953
1563815740465310,0.059082,0.195801,0.876953
1563815740477304,0.0576172,0.195801,0.880859
1563815740499296,0.0527344,0.197266,0.881836
1563815740517281,0.0512695,0.203125,0.888672
1563815740537271,0.0546875,0.19873,0.883301
1563815740561255,0.0527344,0.19873,0.885254
1563815740577246,0.0507813,0.201172,0.881348
1563815740600235,0.0512695,0.199707,0.888672
1563815740639212,0.0600586,0.198242,0.887695
1563815740643228,0.0537109,0.203125,0.884766
1563815740657206,0.0522461,0.195801,0.882324
1563815740681186,0.0576172,0.200195,0.879395
1563815740697177,0.0629883,0.203613,0.879883
1563815740726162,0.0625,0.202637,0.878418
1563815740735156,0.0664063,0.200684,0.875488
1563815740757144,0.0620117,0.199707,0.875
1563815740778131,0.0727539,0.199219,0.871094
1563815740795124,0.0727539,0.203613,0.871582
1563815740817107,0.0732422,0.200195,0.871094
1563815740847090,0.0703125,0.202148,0.872559
1563815740855087,0.0761719,0.197266,0.875
1563815740877074,0.0761719,0.194336,0.879395
1563815740898062,0.0820313,0.206055,0.881348
1563815740915052,0.0917969,0.212891,0.875
1563815740937039,0.0917969,0.202637,0.863281
1563815740960026,0.0917969,0.203613,0.865234
1563815740975019,0.0922852,0.203125,0.869141
1563815740997006,0.102539,0.211914,0.865234
1563815741017994,0.10791,0.219238,0.856934
1563815741040020,0.115723,0.228027,0.842285
1563815741063015,0.126953,0.229492,0.837891
1563815741078966,0.131348,0.237305,0.833496
1563815741100947,0.142578,0.243164,0.823242
1563815741117937,0.15918,0.255859,0.805664
1563815741138924,0.154785,0.243652,0.800781
1563815741153928,0.146484,0.248047,0.811523
1563815741176902,0.155273,0.244141,0.820801
1563815741198890,0.163574,0.248047,0.817383
1563815741213884,0.181641,0.242676,0.796387
1563815741236868,0.195313,0.213379,0.802734
1563815741258855,0.203125,0.208984,0.82373
1563815741279844,0.21875,0.209961,0.830566
1563815741296833,0.252441,0.211914,0.82666
1563815741318824,0.291992,0.211914,0.830566
1563815741341808,0.312012,0.205078,0.848145
1563815741356803,0.334961,0.1875,0.854492
1563815741378786,0.367676,0.17041,0.842773
1563815741401774,0.398438,0.161133,0.845215
1563815741416768,0.419922,0.160645,0.849121
1563815741439751,0.432129,0.168945,0.845703
1563815741467736,0.444824,0.16748,0.833496
1563815741476732,0.443359,0.160156,0.817383
1563815741498722,0.443848,0.163086,0.812988
1563815741519714,0.458008,0.168945,0.803711
1563815741536695,0.463379,0.152832,0.799316
1563815741559684,0.479492,0.131836,0.775879
1563815741579681,0.503906,0.124512,0.776367
1563815741596662,0.497559,0.116211,0.77832
1563815741619654,0.493652,0.107422,0.776367
1563815741640640,0.510742,0.0874023,0.76416
1563815741656626,0.506348,0.0888672,0.771973
1563815741679616,0.498535,0.102051,0.754883
1563815741700605,0.504883,0.127441,0.744629
1563815741716596,0.52832,0.130859,0.72168
1563815741739580,0.540527,0.135254,0.731934
1563815741760569,0.540039,0.133301,0.730957
1563815741784554,0.54248,0.120605,0.732422
1563815741799546,0.539551,0.126465,0.72168
1563815741820555,0.54248,0.134766,0.714844
1563815741837548,0.558105,0.14502,0.714355
1563815741859510,0.555664,0.145508,0.713867
1563815741880522,0.557617,0.141113,0.717773
1563815741896492,0.559082,0.138184,0.718262
1563815741925473,0.554688,0.130859,0.719727
1563815741941464,0.552246,0.122559,0.71875
1563815741956459,0.543457,0.12793,0.720215
1563815741979444,0.541992,0.121094,0.711426
1563815742001430,0.54248,0.119629,0.712891
1563815742016420,0.543945,0.123535,0.713379
1563815742039411,0.542969,0.129395,0.71582
1563815742061395,0.54541,0.137207,0.720215
1563815742076386,0.556152,0.129395,0.716797
1563815742099375,0.567871,0.12207,0.711914
1563815742121362,0.568359,0.111328,0.700684
1563815742136353,0.567383,0.116211,0.706055
1563815742159340,0.570801,0.132813,0.714844
1563815742181325,0.564941,0.135254,0.720703
1563815742196318,0.555664,0.132813,0.733887
1563815742219310,0.554688,0.119141,0.729492
1563815742241294,0.547363,0.111328,0.727539
1563815742256283,0.554688,0.124512,0.724121
1563815742279269,0.55127,0.137207,0.719238
1563815742302268,0.553711,0.152832,0.70459
1563815742316253,0.550781,0.177246,0.693848
1563815742339239,0.541992,0.177246,0.712891
1563815742369227,0.518555,0.143555,0.73877
1563815742382210,0.513672,0.0820313,0.713867
1563815742399202,0.47168,0.0571289,0.76123
1563815742421192,0.713867,-0.0131836,0.71875
1563815742442198,0.544434,0.09375,0.866699
1563815742459167,0.425781,0.0268555,0.70166
1563815742481167,0.482422,0.13916,0.656738
1563815742503146,0.525391,0.193359,0.666016
1563815742519140,0.553223,0.138672,0.728027
1563815742542120,0.570801,0.110352,0.762207
1563815742564107,0.554199,0.120117,0.767578
1563815742579098,0.521973,0.126953,0.750488
1563815742602092,0.515137,0.112793,0.735352
1563815742623076,0.509277,0.0986328,0.733398
1563815742639068,0.51416,0.0859375,0.71582
1563815742669064,0.535645,0.090332,0.714844
1563815742683060,0.547852,0.111328,0.730957
1563815742699051,0.556152,0.106934,0.732422
1563815742722016,0.550781,0.0981445,0.733887
1563815742743074,0.541992,0.0898438,0.730957
1563815742761040,0.543945,0.0883789,0.728516
1563815742782028,0.542969,0.0932617,0.717285
1563815742803039,0.539551,0.10498,0.723145
1563815742819015,0.522949,0.112793,0.717285
1563815742842016,0.598145,0.129395,0.711914
1563815742871979,0.616211,0.140625,0.719238
1563815742878974,0.502441,0.119141,0.758789
1563815742901971,0.575684,0.100586,0.674316
1563815742922969,0.506836,0.123047,0.772461
1563815742938944,0.540039,0.0795898,0.746094
1563815742961947,0.540039,0.0864258,0.719238
1563815742983912,0.554199,0.0898438,0.713379
1563815742998904,0.555664,0.106934,0.72168
1563815743021892,0.554688,0.110352,0.726074
1563815743043878,0.554199,0.107422,0.720703
1563815743058873,0.546387,0.107422,0.71875
1563815743088855,0.547852,0.118164,0.71582
1563815743103850,0.553223,0.118164,0.720703
1563815743118837,0.553223,0.115723,0.715332
1563815743141824,0.561035,0.11084,0.708496
1563815743163810,0.560547,0.108398,0.716309
1563815743178802,0.569824,0.114258,0.728027
1563815743201789,0.572754,0.114746,0.711426
1563815743223775,0.548828,0.105957,0.717285
1563815743238766,0.54541,0.09375,0.732422
1563815743261756,0.546387,0.0776367,0.736816
1563815743291736,0.539551,0.0795898,0.730469
1563815743305727,0.543945,0.09375,0.728027
1563815743321720,0.549316,0.0991211,0.738281
1563815743343705,0.536621,0.078125,0.769043
1563815743364694,0.517578,0.046875,0.820801
1563815743387681,0.495117,0.0117188,0.87793
1563815743403671,0.476074,-0.0410156,0.961426
1563815743425660,0.46582,-0.138184,1.05176
1563815743448661,0.447266,-0.240723,1.14453
1563815743463667,0.39209,-0.289551,1.27246
1563815743485632,0.378906,-0.253906,1.35596
1563815743501623,0.449219,-0.273926,1.40674
1563815743523634,0.535156,-0.334473,1.42383
1563815743545600,0.62793,-0.399414,1.43213
1563815743561587,0.700684,-0.473633,1.42871
1563815743584570,0.740234,-0.51416,1.40479
1563815743612555,0.722656,-0.572754,1.39746
1563815743621547,0.6875,-0.59668,1.37939
1563815743644535,0.698242,-0.592285,1.31787
1563815743665541,0.693848,-0.629883,1.23682
1563815743687509,0.669434,-0.674316,1.16895
1563815743704516,0.670898,-0.710449,1.07861
1563815743726487,0.646484,-0.689453,0.989258
1563815743741499,0.554688,-0.605957,0.904785
1563815743764487,0.456543,-0.523926,0.791992
1563815743785455,0.315918,-0.472168,0.726074
1563815743802457,0.153809,-0.39502,0.661621
1563815743824431,0.0102539,-0.376953,0.60498
1563815743845439,-0.106445,-0.380371,0.515137
1563815743868405,-0.255371,-0.353516,0.448242
1563815743884398,-0.414063,-0.328125,0.363281
1563815743914380,-0.439453,-0.297852,0.250977
1563815743927392,-0.416992,-0.185547,0.153809
1563815743944383,-0.46875,-0.116211,0.0644531
1563815743968355,-0.5,-0.185547,-0.0117188
1563815743981342,-0.555176,-0.214844,-0.050293
1563815744010326,-0.680664,-0.212402,-0.128906
1563815744026315,-0.702637,-0.161621,-0.212891
1563815744041328,-0.621582,-0.139648,-0.28125
1563815744064293,-0.635742,-0.169434,-0.286621
1563815744086282,-0.760254,-0.179199,-0.29834
1563815744092296,-0.77832,-0.184082,-0.352539
1563815744108267,-0.794434,-0.116211,-0.332031
1563815744129255,-0.868652,-0.0649414,-0.256836
1563815744152244,-0.933105,-0.0864258,-0.233887
1563815744193222,-0.919922,-0.135254,-0.22168
1563815744197218,-0.916016,-0.152832,-0.19043
1563815744229219,-0.945313,-0.104492,-0.132324
1563815744231196,-0.961914,-0.0517578,-0.107422
1563815744249207,-0.942871,-0.03125,-0.0952148
1563815744289185,-0.938965,-0.0112305,-0.0512695
1563815744291164,-0.940918,0.0180664,-0.0195313
1563815744309156,-0.932617,0.0791016,-0.0175781
1563815744335143,-0.932617,0.122559,0.0395508
1563815744348132,-0.920898,0.14502,0.0751953
1563815744369119,-0.938477,0.166016,0.101074
1563815744393105,-0.95459,0.213867,0.132813
1563815744414097,-0.972168,0.271484,0.15625
1563815744446074,-0.967285,0.272949,0.180176
1563815744452076,-0.962891,0.235352,0.1875
1563815744468071,-0.967285,0.231445,0.197266
1563815744489051,-0.940918,0.263672,0.213867
1563815744512055,-0.934082,0.265625,0.213379
1563815744528057,-0.933105,0.256348,0.214844
1563815744550015,-0.935547,0.236328,0.20166
1563815744572034,-0.915527,0.227539,0.187988
1563815744588024,-0.901367,0.229492,0.177246
1563815744609980,-0.868164,0.197266,0.139648
1563815744639962,-0.848633,0.161621,0.138672
1563815744647959,-0.874512,0.175293,0.157227
1563815744670946,-0.90332,0.20752,0.219238
1563815744691933,-0.936035,0.196289,0.262207
1563815744707923,-0.952148,0.174316,0.291992
1563815744729913,-0.956055,0.130859,0.313965
1563815744751933,-0.989746,0.134766,0.358398
1563815744768893,-0.994629,0.138672,0.375
1563815744789908,-0.935059,0.11084,0.368164
1563815744813864,-0.883301,0.0610352,0.371094
1563815744829855,-0.867676,0.0322266,0.373047
1563815744852840,-0.86084,0.0219727,0.346191
1563815744871853,-0.808105,0.00537109,0.299805
1563815744890818,-0.773926,-0.0258789,0.288086
1563815744909812,-0.80957,-0.0380859,0.311523
1563815744931818,-0.850098,-0.0585938,0.34082
1563815744950797,-0.898438,-0.0673828,0.32959
1563815744976771,-0.879883,-0.114746,0.361328
1563815744992761,-0.865723,-0.23877,0.411621
1563815745023741,-0.88916,-0.350586,0.388672
1563815745029739,-0.82373,-0.383301,0.316406
1563815745051734,-0.698242,-0.351563,0.245605
1563815745069717,-0.608887,-0.337891,0.226563
1563815745096724,-0.616699,-0.36084,0.257813
1563815745111716,-0.615723,-0.390625,0.234863
1563815745129682,-0.56543,-0.388184,0.197266
1563815745149694,-0.455566,-0.350586,0.158203
1563815745171681,-0.307617,-0.290039,0.152832
1563815745190647,-0.157715,-0.22998,0.200195
1563815745209635,-0.124512,-0.214844,0.34375
1563815745231646,-0.217285,-0.13623,0.418457
1563815745249613,-0.174316,-0.0678711,0.448242
1563815745276621,-0.00927734,-0.0488281,0.54834
1563815745287592,-0.0268555,-0.135742,0.719727
1563815745309582,-0.300293,-0.0546875,0.841797
1563815745336566,-0.336914,0.0214844,0.950195
1563815745352556,-0.185547,-0.0625,1.15332
1563815745369543,-0.274902,-0.247559,1.33105
1563815745389539,-0.452637,-0.345703,1.47266
1563815745407525,-0.381836,-0.274414,1.56836
1563815745430510,-0.211914,-0.258301,1.64307
1563815745451499,-0.0493164,-0.217773,1.64355
1563815745467492,0.109863,-0.20459,1.58252
1563815745490475,0.157227,-0.187988,1.5
1563815745511462,0.210449,-0.14209,1.3916
1563815745532476,0.286621,-0.124023,1.27344
1563815745556436,0.314453,-0.160156,1.18213
1563815745570429,0.271484,-0.210938,1.15137
1563815745586423,0.216309,-0.182129,1.12256
1563815745617402,0.235352,-0.120605,1.05811
1563815745630416,0.272949,-0.0639648,0.989258
1563815745647390,0.329102,-0.0449219,0.931641
1563815745685363,0.384766,-0.0336914,0.88623
1563815745690361,0.38623,-0.015625,0.861816
1563815745706354,0.394043,0.0234375,0.814453
1563815745729339,0.408691,0.0961914,0.810059
1563815745750331,0.46582,0.144043,0.778809
1563815745780333,0.500488,0.140137,0.77832
1563815745790302,0.515137,0.128418,0.779785
1563815745811290,0.544434,0.148926,0.757813
1563815745834278,0.570801,0.162598,0.750488
1563815745849270,0.590332,0.140137,0.747559
1563815745871256,0.602051,0.123535,0.744141
1563815745886248,0.585449,0.133789,0.75
1563815745909235,0.587891,0.166992,0.734863
1563815745932222,0.591797,0.187988,0.723145
1563815745946232,0.608398,0.1875,0.710938
1563815745983195,0.628418,0.165527,0.700195
1563815746006208,0.641602,0.128906,0.700195
1563815746009207,0.636719,0.114258,0.68457
1563815746029165,0.624512,0.125977,0.667969
1563815746058151,0.621582,0.149414,0.654297
1563815746066144,0.617676,0.147461,0.655762
1563815746089132,0.616211,0.126953,0.657227
1563815746111119,0.625977,0.113281,0.665527
1563815746126112,0.628418,0.112305,0.659668
1563815746149099,0.63916,0.128418,0.648926
1563815746171090,0.637695,0.143066,0.642578
1563815746186075,0.637207,0.155762,0.635254
1563815746209065,0.635254,0.146484,0.628906
1563815746231050,0.637695,0.12793,0.639648
1563815746246040,0.625488,0.120605,0.63916
1563815746276030,0.62793,0.126465,0.645508
1563815746291014,0.631836,0.146484,0.648438
1563815746313002,0.628906,0.151367,0.647949
1563815746328992,0.629395,0.135742,0.651855
1563815746351980,0.630859,0.131348,0.660645
1563815746372967,0.629883,0.128418,0.660156
1563815746389989,0.625,0.130371,0.657715
1563815746411946,0.619629,0.126953,0.661133
1563815746432942,0.619141,0.136719,0.659668
1563815746448932,0.622559,0.135254,0.659668
1563815746471914,0.62207,0.131348,0.659668
1563815746491901,0.625977,0.130371,0.666016
1563815746508894,0.630859,0.132324,0.659668
1563815746531879,0.62207,0.140137,0.649414
1563815746552866,0.625977,0.165527,0.645996
1563815746568859,0.623535,0.178711,0.622559
1563815746591844,0.626465,0.167969,0.625
1563815746612853,0.630859,0.138672,0.641113
1563815746628826,0.616699,0.121582,0.631348
1563815746651817,0.615723,0.11084,0.628906
1563815746672818,0.599121,0.0727539,0.645996
1563815746696787,0.852051,0.019043,0.663086
1563815746711775,0.61084,0.0463867,0.72998
1563815746736760,0.586914,0.138672,0.662109
1563815746749755,0.660645,0.260742,0.639648
1563815746778735,0.599609,0.150391,0.660645
1563815746794732,0.588867,0.0898438,0.678711
1563815746808719,0.657715,0.114258,0.691406
1563815746831715,0.625977,0.182617,0.678223
1563815746859712,0.572754,0.155762,0.612793
1563815746868684,0.672852,0.157227,0.697266
1563815746891686,0.619629,0.0957031,0.603027
1563815746913658,0.618652,0.135254,0.64502
1563815746928655,0.628906,0.148926,0.636719
1563815746951641,0.629883,0.158203,0.63916
1563815746974626,0.635254,0.150879,0.642578
1563815746988618,0.631836,0.141602,0.640625
1563815747011606,0.638184,0.13916,0.640625
1563815747034592,0.636719,0.133789,0.643066
1563815747055577,0.642578,0.130371,0.643066
1563815747071576,0.644043,0.131348,0.639648
1563815747094556,0.635254,0.133789,0.644043
1563815747108548,0.643066,0.141602,0.644531
1563815747131537,0.641602,0.143066,0.647949
1563815747154520,0.634766,0.13916,0.645996
1563815747168511,0.643555,0.158203,0.639648
1563815747191499,0.648926,0.171875,0.63916
1563815747220485,0.635254,0.146484,0.633789
1563815747235475,0.628906,0.10498,0.643066
1563815747251470,0.63623,0.0805664,0.640137
1563815747274473,0.63916,0.0859375,0.651855
1563815747295443,0.630859,0.108887,0.649414
1563815747311430,0.632813,0.135742,0.649902
1563815747335416,0.63916,0.148926,0.634766
1563815747355406,0.643555,0.143555,0.642578
1563815747372416,0.659668,0.125,0.640625
1563815747394383,0.661133,0.115234,0.638672
1563815747423395,0.651855,0.111816,0.637207
1563815747448381,0.656738,0.119629,0.639648
1563815747454348,0.648926,0.132813,0.637207
1563815747475366,0.649414,0.134766,0.632813
1563815747491326,0.645996,0.126465,0.630859
1563815747514314,0.644043,0.119141,0.631836
1563815747535301,0.649902,0.122559,0.631836
1563815747551300,0.655762,0.126953,0.629395
1563815747574281,0.649414,0.134766,0.630859
1563815747595270,0.65332,0.127441,0.626465
1563815747611260,0.65332,0.118652,0.626465
1563815747634244,0.651367,0.118652,0.635742
1563815747655238,0.650879,0.115723,0.637207
1563815747671222,0.645996,0.120117,0.636719
1563815747694211,0.64502,0.121582,0.637695
1563815747732189,0.651367,0.120605,0.635742
1563815747734194,0.649414,0.122559,0.628906
1563815747754189,0.651855,0.118652,0.639648
1563815747784162,0.656738,0.118652,0.638672
1563815747791185,0.651855,0.118652,0.632813
1563815747814141,0.65332,0.123535,0.632813
1563815747837128,0.647949,0.120605,0.633789
1563815747851133,0.650391,0.124023,0.640625
1563815747874116,0.647461,0.120117,0.632813
1563815747897094,0.647461,0.124512,0.63623
1563815747911093,0.650391,0.125488,0.631836
1563815747942071,0.650391,0.126953,0.637207
1563815747957061,0.648926,0.123535,0.63916
1563815747980048,0.645996,0.120605,0.634277
1563815747994039,0.646484,0.119141,0.635254
1563815748017028,0.648926,0.118652,0.633301
1563815748031017,0.652344,0.119629,0.635254
1563815748055005,0.653809,0.117188,0.63623
1563815748076991,0.651855,0.118652,0.636719
1563815748090985,0.654297,0.121094,0.635254
1563815748113971,0.650879,0.119629,0.63623
1563815748136958,0.652832,0.124023,0.63916
1563815748150950,0.65332,0.118652,0.63623
1563815748173942,0.650391,0.122559,0.631348
1563815748203925,0.651855,0.12207,0.636719
1563815748218912,0.651855,0.117676,0.629883
1563815748233922,0.653809,0.119141,0.634766
1563815748256892,0.657227,0.121094,0.628418
1563815748278876,0.652832,0.120605,0.631348
1563815748293886,0.648438,0.122559,0.634277
1563815748316855,0.654785,0.119141,0.636719
1563815748337844,0.653809,0.121582,0.638672
1563815748353840,0.652832,0.12207,0.638672
1563815748376820,0.648438,0.118652,0.634766
1563815748397810,0.654297,0.117188,0.631836
1563815748413816,0.648438,0.121094,0.633789
1563815748436785,0.65332,0.125488,0.634277
1563815748458780,0.649414,0.123047,0.630859
1563815748473775,0.650879,0.12207,0.636719
1563815748496759,0.649902,0.121582,0.635254
1563815748517799,0.650391,0.125,0.633789
1563815748533736,0.653809,0.121582,0.633301
1563815748556718,0.653809,0.119141,0.635254
1563815748577747,0.657227,0.118652,0.632813
1563815748584701,0.655762,0.12793,0.633789
1563815748599693,0.656738,0.124023,0.633789
1563815748621712,0.651855,0.121582,0.631836
1563815748644674,0.648438,0.122559,0.63623
1563815748659697,0.657227,0.120117,0.635742
1563815748681665,0.649902,0.124512,0.637695
1563815748704670,0.646973,0.123535,0.634766
1563815748722622,0.645508,0.121582,0.636719
1563815748758633,0.648926,0.116211,0.637695
1563815748764635,0.65332,0.119141,0.634766
1563815748779589,0.65332,0.121094,0.634277
1563815748824571,0.653809,0.119141,0.630859
1563815748836557,0.655273,0.119141,0.637207
1563815748840554,0.656738,0.118652,0.635254
1563815748861541,0.655273,0.115723,0.630859
1563815748885531,0.654297,0.121094,0.628418
1563815748899519,0.650879,0.120605,0.633301
1563815748923506,0.655762,0.117676,0.632813
1563815748944556,0.654297,0.119629,0.630859
1563815748959546,0.651367,0.116699,0.634277
1563815748982472,0.653809,0.119629,0.633789
1563815749004460,0.653809,0.120605,0.632324
1563815749019478,0.652344,0.118164,0.635254
1563815749049433,0.65332,0.11377,0.630371
1563815749066428,0.652832,0.119141,0.634766
1563815749079416,0.654785,0.116699,0.635254
1563815749109399,0.653809,0.119141,0.63623
1563815749124399,0.650879,0.123535,0.634766
1563815749139424,0.653809,0.120117,0.634766
1563815749165370,0.653809,0.118164,0.633301
1563815749180360,0.651855,0.115234,0.63916
1563815749199349,0.653809,0.118164,0.633301
1563815749222367,0.65625,0.114746,0.633789
1563815749248321,0.650879,0.116699,0.633301
1563815749261330,0.647949,0.116211,0.631836
1563815749282307,0.651367,0.119629,0.632324
1563815749300290,0.654785,0.126953,0.632324
1563815749327278,0.657227,0.125488,0.628906
1563815749342273,0.649902,0.121094,0.631348
1563815749360263,0.65918,0.116211,0.630371
1563815749387256,0.654297,0.117676,0.634766
1563815749402232,0.657227,0.120605,0.634766
1563815749420222,0.654297,0.118652,0.633301
1563815749442210,0.644531,0.118164,0.638184
1563815749462199,0.651855,0.118652,0.64209
1563815749484184,0.648926,0.118164,0.63916
1563815749501174,0.645996,0.117676,0.643555
1563815749525174,0.648926,0.116211,0.637695
1563815749544154,0.652344,0.113281,0.634766
1563815749561142,0.653809,0.118164,0.636719
1563815749582164,0.657715,0.118164,0.643066
1563815749607128,0.657715,0.114746,0.635742
1563815749622107,0.653809,0.117676,0.633789
1563815749642095,0.654785,0.11377,0.636719
1563815749667081,0.656738,0.117676,0.640137
1563815749682071,0.647949,0.114746,0.643555
1563815749702099,0.618652,0.109375,0.668945
1563815749720051,0.616211,0.104492,0.677734
1563815749742044,0.622559,0.106934,0.685059
1563815749762027,0.620117,0.118164,0.677734
1563815749780016,0.640625,0.130371,0.675781
1563815749802003,0.686523,0.140625,0.666992
1563815749821992,0.71875,0.119629,0.637207
1563815749839983,0.733398,0.0864258,0.598145
1563815749861971,0.716309,0.0629883,0.583984
1563815749884955,0.687012,0.0668945,0.566895
1563815749899947,0.666504,0.0927734,0.5625
1563815749921939,0.652344,0.108398,0.572754
1563815749942922,0.658203,0.108398,0.581543
1563815749959915,0.656738,0.105957,0.593262
1563815749981922,0.65332,0.102539,0.608398
1563815750001888,0.652344,0.101074,0.618652
1563815750019877,0.646973,0.0957031,0.636719
1563815750041867,0.645996,0.0844727,0.657227
1563815750062854,0.666016,0.0810547,0.670898
1563815750078859,0.707031,0.0878906,0.668457
1563815750107861,0.727539,0.138672,0.686035
1563815750122857,0.726563,0.186523,0.706055
1563815750139815,0.716797,0.215332,0.752441
1563815750161855,0.696289,0.215332,0.791504
1563815750182788,0.648926,0.195313,0.833984
1563815750198775,0.565918,0.189453,0.862305
1563815750221771,0.478516,0.184082,0.867676
1563815750242758,0.344238,0.168457,0.873047
1563815750259742,0.234863,0.143066,0.877441
1563815750281729,0.177246,0.119629,0.878418
1563815750302716,0.129395,0.100586,0.864258
1563815750320705,0.0737305,0.0908203,0.835938
1563815750341694,0.0400391,0.101074,0.81543
1563815750362683,0.034668,0.125977,0.783691
1563815750386670,0.0332031,0.154297,0.761719
1563815750401657,0.0429688,0.175293,0.720703
1563815750423644,-0.0107422,0.211426,0.699219
1563815750439636,0.0161133,0.19873,0.685547
1563815750461623,0.110352,0.219727,0.694824
1563815750482611,0.196289,0.240234,0.708008
1563815750498602,0.251465,0.236328,0.755859
1563815750527586,0.312012,0.179199,0.759277
1563815750543576,0.375,0.0957031,0.782227
1563815750558575,0.420898,0.0366211,0.794922
1563815750581556,0.493652,0.0258789,0.774902
1563815750604541,0.562988,0.0483398,0.742676
1563815750618535,0.609863,0.0488281,0.742676
1563815750641521,0.668457,0.043457,0.758789
1563815750664507,0.686035,0.00292969,0.777344
1563815750678502,0.668457,-0.0708008,0.79541
1563815750701485,0.661621,-0.109375,0.817383
1563815750724473,0.641602,-0.09375,0.813965
1563815750738464,0.625,-0.0498047,0.796387
1563815750761451,0.594238,-0.0234375,0.788574
1563815750784439,0.558105,-0.0078125,0.769531
1563815750805426,0.541016,-0.00683594,0.762695
1563815750829413,0.538574,-0.000976563,0.754395
1563815750844405,0.537109,0.000488281,0.749512
1563815750865393,0.531738,0.0244141,0.748047
1563815750895411,0.53125,0.0405273,0.744629
1563815750904370,0.52002,0.0522461,0.742188
1563815750925356,0.521484,0.0473633,0.740234
1563815750942347,0.521484,0.0419922,0.74707
1563815750970331,0.519043,0.0336914,0.755371
1563815750978327,0.519043,0.0288086,0.774902
1563815751001314,0.506836,0.0166016,0.795898
1563815751024301,0.493164,-0.019043,0.846191
1563815751045308,0.480957,-0.059082,0.901367
1563815751061279,0.490234,-0.124023,0.974121
1563815751084266,0.479492,-0.209961,1.05713
1563815751105255,0.452637,-0.268066,1.12402
1563815751121245,0.464355,-0.318848,1.15674
1563815751144232,0.471191,-0.391602,1.21484
1563815751165219,0.459473,-0.423828,1.25439
1563815751182213,0.479492,-0.418945,1.24951
1563815751204197,0.546875,-0.400391,1.24902
1563815751225186,0.561035,-0.429688,1.28564
1563815751241175,0.566406,-0.498047,1.29932
1563815751270178,0.57666,-0.526367,1.29785
1563815751285170,0.612305,-0.527344,1.26904
1563815751301142,0.609863,-0.521484,1.25146
1563815751330124,0.607422,-0.549316,1.20313
1563815751345135,0.572266,-0.582031,1.14844
1563815751361106,0.549805,-0.609863,1.07813
1563815751384094,0.526855,-0.609863,0.988281
1563815751405087,0.472656,-0.572266,0.912598
1563815751421073,0.42041,-0.566895,0.82373
1563815751444061,0.350098,-0.55957,0.748047
1563815751466050,0.282715,-0.588867,0.66748
1563815751481040,0.208984,-0.593262,0.592773
1563815751504026,0.133301,-0.588867,0.537598
1563815751527012,0.0332031,-0.568848,0.468262
1563815751549000,-0.059082,-0.539063,0.374512
1563815751563992,-0.123047,-0.510742,0.305664
1563815751586976,-0.208496,-0.458984,0.249512
1563815751607985,-0.272461,-0.41748,0.151367
1563815751623957,-0.295898,-0.394043,0.0800781
1563815751646962,-0.347656,-0.416992,0.0444336
1563815751660936,-0.520996,-0.432129,0.0463867
1563815751683924,-0.630859,-0.434082,-0.0126953
1563815751706910,-0.612793,-0.421387,-0.0732422
1563815751727909,-0.647461,-0.404297,-0.100586
1563815751743887,-0.756348,-0.352539,-0.122559
1563815751766882,-0.772949,-0.346191,-0.155762
1563815751787863,-0.777344,-0.387207,-0.128906
1563815751803852,-0.82666,-0.428223,-0.110352
1563815751826839,-0.870605,-0.42627,-0.0957031
1563815751847829,-0.887207,-0.408203,-0.10498
1563815751863819,-0.879395,-0.390137,-0.0878906
1563815751886806,-0.876953,-0.428711,-0.0688477
1563815751907798,-0.890137,-0.473633,-0.0732422
1563815751925784,-0.878418,-0.460938,-0.0908203
1563815751946772,-0.864258,-0.427246,-0.105957
1563815751967759,-0.89209,-0.414063,-0.0947266
1563815751983749,-0.905273,-0.413574,-0.104004
1563815752006737,-0.888672,-0.417969,-0.107422
1563815752027725,-0.906738,-0.404785,-0.0927734
1563815752043715,-0.92627,-0.400879,-0.0908203
1563815752072699,-0.918945,-0.409668,-0.0927734
1563815752087690,-0.912598,-0.400391,-0.090332
1563815752103687,-0.925781,-0.400879,-0.0893555
1563815752126668,-0.930664,-0.387207,-0.0820313
1563815752147668,-0.932617,-0.395996,-0.0771484
1563815752170643,-0.9375,-0.407715,-0.0810547
1563815752186651,-0.94873,-0.394531,-0.0737305
1563815752207622,-0.945313,-0.383789,-0.0595703
1563815752224618,-0.950195,-0.388184,-0.0541992
1563815752246606,-0.94873,-0.416016,-0.0512695
1563815752275586,-0.960938,-0.411621,-0.0444336
1563815752283579,-0.963379,-0.39502,-0.0498047
1563815752306565,-0.949219,-0.393066,-0.0556641
1563815752327552,-0.943848,-0.400879,-0.0478516
1563815752343547,-0.95459,-0.407227,-0.0400391
1563815752366530,-0.945313,-0.406738,-0.0444336
1563815752387526,-0.945313,-0.405762,-0.0449219
1563815752404518,-0.937988,-0.404785,-0.0512695
1563815752426503,-0.937012,-0.412109,-0.0405273
1563815752449484,-0.933594,-0.422363,-0.034668
1563815752464474,-0.933594,-0.420898,-0.0415039
1563815752492458,-0.945313,-0.409668,-0.0307617
1563815752509448,-0.942871,-0.407715,-0.03125
1563815752524439,-0.945313,-0.417969,-0.0292969
1563815752546432,-0.950195,-0.42627,-0.0161133
1563815752569414,-0.947266,-0.429688,-0.0117188
1563815752583407,-0.941406,-0.431152,-0.012207
1563815752607399,-0.945801,-0.428711,0.00488281
1563815752629380,-0.943848,-0.423828,0.000488281
1563815752643372,-0.937988,-0.42627,-0.00585938
1563815752666359,-0.943359,-0.42627,0.00488281
1563815752689345,-0.945313,-0.434082,-0.00292969
1563815752703338,-0.937012,-0.431641,0.00146484
1563815752732321,-0.939941,-0.422852,0.012207
1563815752749314,-0.950195,-0.418945,0.0146484
1563815752771298,-0.9375,-0.427734,0.0146484
1563815752786300,-0.935547,-0.440918,0.0141602
1563815752809280,-0.9375,-0.440918,0.0180664
1563815752823269,-0.94043,-0.429688,0.015625
1563815752852267,-0.943359,-0.42627,0.0219727
1563815752869251,-0.936523,-0.430176,0.0219727
1563815752884234,-0.937012,-0.436035,0.0200195
1563815752907219,-0.938477,-0.443359,0.027832
1563815752935204,-0.942871,-0.433105,0.0209961
1563815752950195,-0.937012,-0.435059,0.0200195
1563815752966187,-0.935547,-0.442383,0.0205078
1563815752995169,-0.934082,-0.445801,0.0273438
1563815753010161,-0.928223,-0.442383,0.0151367
1563815753026151,-0.933594,-0.4375,0.0185547
1563815753049139,-0.936035,-0.437012,0.0239258
1563815753070157,-0.934082,-0.437012,0.019043
1563815753086147,-0.925293,-0.438477,0.0185547
1563815753092144,-0.924316,-0.442871,0.0200195
1563815753114101,-0.928223,-0.451172,0.0126953
1563815753137088,-0.928223,-0.44873,0.0195313
1563815753152111,-0.930176,-0.435059,0.0136719
1563815753191059,-0.930176,-0.428223,0.0234375
1563815753198054,-0.936035,-0.4375,0.0170898
1563815753213044,-0.933105,-0.456055,0.0200195
1563815753236034,-0.938965,-0.447266,0.0239258
1563815753252022,-0.933105,-0.43457,0.015625
1563815753273009,-0.924805,-0.438965,0.0170898
1563815753294017,-0.930176,-0.441895,0.0151367
1563815753311988,-0.926758,-0.450684,0.0234375
1563815753332977,-0.928223,-0.446777,0.0219727
1563815753354966,-0.927734,-0.438477,0.0185547
1563815753371955,-0.929688,-0.432617,0.0112305
1563815753394943,-0.925293,-0.446777,0.0200195
1563815753414930,-0.934082,-0.447266,0.0209961
1563815753431920,-0.92627,-0.439453,0.0224609
1563815753452908,-0.925293,-0.446777,0.0258789
1563815753474894,-0.93457,-0.446777,0.0302734
1563815753491885,-0.929199,-0.451172,0.027832
1563815753518872,-0.919922,-0.45166,0.0332031
1563815753534859,-0.929199,-0.455566,0.0327148
1563815753556850,-0.933105,-0.455566,0.0317383
1563815753571859,-0.928711,-0.455566,0.0405273
1563815753594825,-0.926758,-0.447266,0.0415039
1563815753611817,-0.927734,-0.461426,0.0527344
1563815753631806,-0.938477,-0.458496,0.0415039
1563815753654795,-0.92334,-0.45752,0.0351563
1563815753672800,-0.924316,-0.455078,0.0429688
1563815753694768,-0.91748,-0.452637,0.0405273
1563815753716756,-0.922852,-0.445801,0.0473633
1563815753736744,-0.922852,-0.445313,0.0419922
1563815753751736,-0.92627,-0.44873,0.0449219
1563815753774726,-0.922363,-0.444824,0.0463867
1563815753798711,-0.916504,-0.451172,0.0400391
1563815753812701,-0.92627,-0.456055,0.0336914
1563815753837686,-0.91748,-0.443848,0.0307617
1563815753852678,-0.916992,-0.442383,0.0366211
1563815753873666,-0.916992,-0.445313,0.0375977
1563815753894657,-0.922363,-0.45166,0.0419922
1563815753912645,-0.917969,-0.457031,0.0322266
1563815753931636,-0.915039,-0.45459,0.0292969
1563815753954619,-0.913086,-0.450195,0.0332031
1563815753972612,-0.912598,-0.454102,0.0327148
1563815753993596,-0.917969,-0.462891,0.0351563
1563815754014585,-0.916016,-0.467773,0.0390625
1563815754032576,-0.914551,-0.469727,0.0327148
1563815754053565,-0.90625,-0.472656,0.034668
1563815754075550,-0.89502,-0.479004,0.0249023
1563815754092541,-0.897461,-0.471191,0.0317383
1563815754113529,-0.90332,-0.467285,0.050293
1563815754134519,-0.910156,-0.477051,0.0429688
1563815754159501,-0.905762,-0.486816,0.0546875
1563815754173495,-0.902832,-0.498047,0.0498047
1563815754194481,-0.906738,-0.489746,0.0595703
1563815754217469,-0.896973,-0.494141,0.0595703
1563815754233460,-0.897949,-0.495605,0.0756836
1563815754254448,-0.904785,-0.491211,0.0878906
1563815754272438,-0.910645,-0.492676,0.0952148
1563815754293425,-0.896973,-0.505859,0.100098
1563815754314414,-0.893555,-0.519043,0.102539
1563815754332404,-0.899414,-0.501953,0.103027
1563815754354391,-0.907227,-0.490723,0.11377
1563815754374380,-0.89209,-0.503418,0.114258
1563815754392368,-0.882813,-0.522461,0.116699
1563815754415356,-0.896973,-0.516602,0.118652
1563815754434344,-0.892578,-0.496582,0.109375
1563815754452335,-0.888184,-0.491699,0.11377
1563815754474325,-0.883301,-0.503906,0.114258
1563815754494309,-0.875,-0.518066,0.10791
1563815754512300,-0.881348,-0.517578,0.106445
1563815754535288,-0.89502,-0.500488,0.10791
1563815754555275,-0.887695,-0.493164,0.107422
1563815754571266,-0.876953,-0.508301,0.100098
1563815754594252,-0.870605,-0.530273,0.0966797
1563815754616240,-0.865234,-0.536621,0.0849609
1563815754631233,-0.866211,-0.526367,0.0810547
1563815754654218,-0.894043,-0.509277,0.0893555
1563815754668210,-0.879883,-0.509766,0.0942383
1563815754691197,-0.865234,-0.539551,0.0771484
1563815754720181,-0.876953,-0.556152,0.0888672
1563815754728176,-0.885254,-0.538086,0.0913086
1563815754751163,-0.884766,-0.513672,0.0898438
1563815754774150,-0.881348,-0.521973,0.0825195
1563815754788142,-0.862793,-0.549805,0.0678711
1563815754814127,-0.847656,-0.548828,0.0615234
1563815754840114,-0.850098,-0.516602,0.0610352
1563815754855103,-0.852051,-0.509277,0.0444336
1563815754879090,-0.817383,-0.526855,0.0205078
1563815754894080,-0.775391,-0.552734,-0.0126953
1563815754915070,-0.735352,-0.542969,-0.0244141
1563815754939055,-0.787109,-0.481445,-0.0107422
1563815754954050,-0.796387,-0.45752,-0.0146484
1563815754975034,-0.737793,-0.494629,-0.0683594
1563815754991027,-0.654785,-0.523926,-0.120117
1563815755014013,-0.602051,-0.500488,-0.108887
1563815755034999,-0.624023,-0.450684,-0.0800781
1563815755050991,-0.641602,-0.434082,-0.0834961
1563815755073978,-0.60791,-0.439453,-0.0966797
1563815755102961,-0.588867,-0.446777,-0.0478516
1563815755111956,-0.613281,-0.470215,-0.000976563
1563815755133943,-0.594727,-0.47998,0.0439453
1563815755154932,-0.542969,-0.513184,0.104004
1563815755171922,-0.55127,-0.524414,0.176758
1563815755195907,-0.57666,-0.541016,0.22998
1563815755214898,-0.569336,-0.528809,0.298828
1563815755230889,-0.541016,-0.52002,0.383789
1563815755253875,-0.54248,-0.556641,0.470703
1563815755276861,-0.57373,-0.560547,0.544922
1563815755290853,-0.491211,-0.594727,0.589355
1563815755313841,-0.438965,-0.641602,0.689941
1563815755336827,-0.460938,-0.65625,0.754883
1563815755350819,-0.40918,-0.585938,0.775391
1563815755381802,-0.268066,-0.549805,0.777344
1563815755396793,-0.240723,-0.574707,0.861816
1563815755410785,-0.317871,-0.595215,0.941406
1563815755434772,-0.258301,-0.592773,0.953125
1563815755456759,-0.125488,-0.57666,0.960938
1563815755470750,-0.0605469,-0.604492,1.00098
1563815755494738,-0.11377,-0.615723,1.02832
1563815755516725,-0.0913086,-0.564941,1.03467
1563815755537714,0.0195313,-0.531738,1.01953
1563815755555703,0.0698242,-0.542969,1.02148
1563815755576690,0.081543,-0.522461,1.0166
1563815755590681,0.145996,-0.500488,0.958984
1563815755617667,0.171875,-0.480469,0.957031
1563815755636656,0.135742,-0.469727,0.966309
1563815755650647,0.172363,-0.481934,0.958008
1563815755673633,0.204102,-0.503906,0.951172
1563815755696620,0.19043,-0.489258,0.963867
1563815755717608,0.199219,-0.477051,0.949219
1563815755733599,0.235352,-0.452637,0.947754
1563815755756586,0.286621,-0.453125,0.935059
1563815755777574,0.299805,-0.447754,0.942871
1563815755793565,0.303711,-0.424805,0.927734
1563815755816553,0.330078,-0.402344,0.910645
1563815755837539,0.35498,-0.375977,0.897949
1563815755853532,0.364258,-0.35791,0.888184
1563815755876518,0.361328,-0.341309,0.883789
1563815755897506,0.350586,-0.313477,0.867676
1563815755913497,0.347168,-0.305176,0.845703
1563815755937482,0.340332,-0.291504,0.844238
1563815755957472,0.35498,-0.28125,0.84668
1563815755974462,0.370605,-0.280273,0.838379
1563815755996450,0.370605,-0.281738,0.844238
1563815756017436,0.372559,-0.283691,0.84082
1563815756034426,0.377441,-0.276855,0.826172
1563815756056415,0.375977,-0.263672,0.818359
1563815756077402,0.374512,-0.26123,0.80957
1563815756094392,0.379883,-0.261719,0.79541
1563815756116379,0.384766,-0.272461,0.793457
1563815756137371,0.379883,-0.27832,0.798828
1563815756154358,0.375977,-0.265137,0.802734
1563815756176346,0.379395,-0.247559,0.800781
1563815756197335,0.378418,-0.254395,0.804199
1563815756214323,0.373047,-0.261719,0.806152
1563815756236310,0.369629,-0.262695,0.812012
1563815756267297,0.384277,-0.250488,0.817871
1563815756274290,0.377441,-0.236328,0.804688
1563815756297277,0.371582,-0.244141,0.793945
1563815756319264,0.366211,-0.25,0.802734
1563815756334254,0.371582,-0.260742,0.79834
1563815756356243,0.382324,-0.265137,0.80127
1563815756381228,0.390137,-0.253418,0.80127
1563815756393220,0.39209,-0.25,0.796875
1563815756416208,0.400879,-0.242676,0.786133
1563815756446190,0.398926,-0.250977,0.779297
1563815756453186,0.398926,-0.25293,0.789551
1563815756476172,0.40918,-0.252441,0.78418
1563815756499160,0.415527,-0.259766,0.793457
1563815756513154,0.407715,-0.26416,0.793945
1563815756544133,0.402344,-0.260254,0.797852
1563815756559126,0.402344,-0.26123,0.80127
1563815756573118,0.409668,-0.27002,0.802246
1563815756602102,0.409668,-0.276367,0.80127
1563815756619093,0.401855,-0.27002,0.804199
1563815756634082,0.403809,-0.274414,0.802246
1563815756657069,0.384277,-0.264648,0.80127
1563815756679056,0.384766,-0.26416,0.804688
1563815756693048,0.397461,-0.261719,0.805664
1563815756716035,0.397949,-0.272949,0.806152
1563815756739022,0.389648,-0.265137,0.796875
1563815756760029,0.39502,-0.245605,0.802734
1563815756776000,0.405762,-0.25,0.808594
1563815756798987,0.402344,-0.26123,0.814453
1563815756821978,0.412109,-0.26416,0.812012
1563815756836969,0.413574,-0.272949,0.822754
1563815756858953,0.409668,-0.254883,0.814941
1563815756879941,0.416992,-0.234863,0.830078
1563815756896934,0.410645,-0.233887,0.835449
1563815756918925,0.405762,-0.236328,0.841309
1563815756939926,0.395508,-0.249023,0.842773
1563815756955897,0.383789,-0.255859,0.849609
1563815756980883,0.374023,-0.237305,0.837402
1563815756999893,0.367676,-0.211914,0.828613
1563815757016862,0.36084,-0.200195,0.82373
1563815757038869,0.359375,-0.191895,0.814453
1563815757059857,0.35498,-0.192383,0.806641
1563815757075830,0.35791,-0.178711,0.801758
1563815757099823,0.351074,-0.172363,0.801758
1563815757119822,0.360352,-0.174805,0.789551
1563815757135797,0.353516,-0.182617,0.776855
1563815757158781,0.334961,-0.195313,0.785645
1563815757181769,0.321777,-0.192383,0.800781
1563815757195761,0.317871,-0.197754,0.801758
1563815757218747,0.29834,-0.213867,0.816406
1563815757241734,0.289063,-0.226563,0.831055
1563815757256728,0.299805,-0.229004,0.84375
1563815757278713,0.293945,-0.225586,0.848633
1563815757301700,0.293457,-0.216309,0.858887
1563815757323690,0.286621,-0.210938,0.85791
1563815757338681,0.296387,-0.206543,0.855469
1563815757361668,0.302734,-0.207031,0.849609
1563815757375661,0.304688,-0.21582,0.860352
1563815757398646,0.307617,-0.217773,0.86084
1563815757421630,0.321777,-0.206543,0.854492
1563815757436622,0.324707,-0.205566,0.860352
1563815757458626,0.324219,-0.199707,0.866211
1563815757481597,0.327637,-0.191895,0.857422
1563815757495589,0.32373,-0.19043,0.852539
1563815757518576,0.326172,-0.185059,0.853027
1563815757541562,0.325195,-0.183105,0.854492
1563815757555557,0.322754,-0.172852,0.845703
1563815757563552,0.32373,-0.168945,0.844727
1563815757584537,0.320801,-0.163086,0.838379
1563815757606544,0.320801,-0.161133,0.849609
1563815757623515,0.319336,-0.161133,0.842773
1563815757644521,0.32373,-0.162109,0.842285
1563815757666490,0.322266,-0.15918,0.846191
1563815757683481,0.322266,-0.155762,0.844238
1563815757704489,0.321777,-0.156738,0.84668
1563815757726456,0.326172,-0.154785,0.841797
1563815757743446,0.325195,-0.148926,0.839844
1563815757765435,0.321289,-0.146484,0.841309
1563815757786440,0.317871,-0.149414,0.842773
1563815757803417,0.315918,-0.151855,0.849609
1563815757824419,0.318359,-0.151367,0.841797
1563815757847390,0.317383,-0.15332,0.851074
1563815757863378,0.323242,-0.160156,0.850098
1563815757884384,0.325684,-0.163574,0.851074
1563815757907354,0.320801,-0.15918,0.856445
1563815757931342,0.32666,-0.157715,0.848145
1563815757944335,0.321289,-0.160156,0.850098
1563815757967318,0.31543,-0.160645,0.846191
1563815757983309,0.310547,-0.162109,0.844727
1563815758004316,0.30957,-0.152832,0.84375
1563815758027301,0.312012,-0.155762,0.851563
1563815758045276,0.306641,-0.150391,0.850586
1563815758064262,0.312012,-0.150879,0.85498
1563815758087268,0.317383,-0.146973,0.850586
1563815758105259,0.322266,-0.136719,0.855957
1563815758124247,0.321777,-0.139648,0.853027
1563815758147215,0.319824,-0.140625,0.855957
1563815758168207,0.318848,-0.13623,0.856934
1563815758185193,0.319824,-0.135254,0.853027
1563815758210179,0.321289,-0.130371,0.855957
1563815758225171,0.321777,-0.137207,0.845215
1563815758244162,0.3125,-0.136719,0.847168
1563815758267145,0.313965,-0.141113,0.854004
1563815758285137,0.310547,-0.137695,0.847168
1563815758304143,0.312012,-0.140137,0.850098
1563815758327115,0.305664,-0.146484,0.85498
1563815758345101,0.30957,-0.13916,0.856445
1563815758364095,0.307617,-0.139648,0.862793
1563815758387076,0.303711,-0.144531,0.847656
1563815758405067,0.306152,-0.140625,0.861816
1563815758424056,0.307617,-0.140137,0.848145
1563815758447043,0.305664,-0.135742,0.857422
1563815758465032,0.309082,-0.130859,0.85498
1563815758487024,0.305176,-0.132324,0.856934
1563815758507027,0.303711,-0.133789,0.857422
1563815758525017,0.305664,-0.127441,0.85791
1563815758544006,0.310059,-0.123047,0.859375
1563815758566997,0.312012,-0.121582,0.851074
1563815758584964,0.313477,-0.115234,0.858887
1563815758604953,0.313477,-0.12207,0.849609
1563815758626941,0.307129,-0.117676,0.854004
1563815758644929,0.306641,-0.119141,0.854004
1563815758663918,0.305176,-0.121094,0.854004
1563815758686906,0.305664,-0.120117,0.853027
1563815758704895,0.303711,-0.120605,0.853027
1563815758725882,0.296875,-0.116699,0.853027
1563815758741874,0.302734,-0.113281,0.857422
1563815758764861,0.300781,-0.121094,0.863281
1563815758785851,0.305664,-0.124512,0.854004
1563815758801839,0.300781,-0.126953,0.861328
1563815758824826,0.307129,-0.117676,0.852539
1563815758845814,0.305176,-0.119141,0.858887
1563815758862805,0.30957,-0.124023,0.862305
1563815758884791,0.309082,-0.119629,0.858398
1563815758905779,0.310547,-0.118164,0.860352
1563815758922770,0.310547,-0.118164,0.855469
1563815758944757,0.3125,-0.118652,0.862793
1563815758965744,0.316895,-0.112793,0.856934
1563815758982738,0.316406,-0.113281,0.860352
1563815759004723,0.31543,-0.117188,0.853516
1563815759026711,0.31543,-0.120605,0.853027
1563815759047697,0.316895,-0.115234,0.850586
1563815759063689,0.309082,-0.115723,0.851563
1563815759086675,0.308105,-0.115723,0.841309
1563815759100667,0.313477,-0.11377,0.853516
1563815759123654,0.308594,-0.11084,0.855469
1563815759146642,0.314941,-0.107422,0.838867
1563815759161633,0.316406,-0.102539,0.851074
1563815759184620,0.314941,-0.097168,0.843262
1563815759206607,0.314453,-0.101074,0.850586
1563815759220598,0.3125,-0.105469,0.852051
1563815759243587,0.316895,-0.103027,0.849609
1563815759266574,0.312988,-0.104004,0.849609
1563815759280565,0.311523,-0.10791,0.849121
1563815759303551,0.309082,-0.11084,0.854492
1563815759326538,0.311523,-0.115234,0.862793
1563815759340530,0.313477,-0.113281,0.865723
1563815759363517,0.318359,-0.114258,0.863281
1563815759386503,0.316406,-0.108887,0.869141
1563815759400495,0.318359,-0.10791,0.858887
1563815759431479,0.315918,-0.11377,0.857422
1563815759446469,0.316406,-0.11084,0.863281
1563815759460461,0.321289,-0.111816,0.856934
1563815759484451,0.317871,-0.108398,0.849609
1563815759506435,0.319824,-0.102539,0.853516
1563815759527426,0.320801,-0.101563,0.856934
1563815759544420,0.317383,-0.0957031,0.851074
1563815759566401,0.318359,-0.10498,0.848633
1563815759587408,0.317383,-0.102051,0.848145
1563815759604398,0.321777,-0.10498,0.847656
1563815759626366,0.318848,-0.0932617,0.846191
1563815759655349,0.320313,-0.0952148,0.848145
1563815759664344,0.317383,-0.0932617,0.849609
1563815759686331,0.321289,-0.0917969,0.850098
1563815759707323,0.319336,-0.0996094,0.85498
1563815759724310,0.32373,-0.100586,0.855469
1563815759746297,0.322754,-0.102539,0.855957
1563815759767304,0.325684,-0.103027,0.860352
1563815759784275,0.331543,-0.106445,0.85498
1563815759806263,0.32666,-0.108398,0.86084
1563815759827270,0.331055,-0.105957,0.860352
1563815759844245,0.328613,-0.109375,0.858398
1563815759874243,0.325684,-0.115234,0.853027
1563815759887236,0.322266,-0.112793,0.850586
1563815759904207,0.325684,-0.108398,0.854492
1563815759926194,0.32373,-0.103516,0.852539
1563815759947201,0.320313,-0.102051,0.843262
1563815759964172,0.32373,-0.102051,0.856445
1563815759987163,0.322266,-0.101074,0.851074
1563815760009146,0.320313,-0.100586,0.852051
1563815760023141,0.326172,-0.0932617,0.854004
1563815760046128,0.324219,-0.0976563,0.845703
1563815760069112,0.323242,-0.0908203,0.852051
1563815760084105,0.325684,-0.0966797,0.847168
1563815760106091,0.323242,-0.0961914,0.852051
1563815760129079,0.32373,-0.0986328,0.839844
1563815760151066,0.320313,-0.0991211,0.842285
1563815760166058,0.318359,-0.102051,0.84375
1563815760189046,0.316406,-0.103516,0.849609
1563815760210035,0.314941,-0.104492,0.855469
1563815760226022,0.313477,-0.105957,0.84668
1563815760249013,0.315918,-0.112793,0.854492
1563815760264001,0.321289,-0.11084,0.855469
1563815760286987,0.316895,-0.102051,0.856445
1563815760309974,0.318359,-0.10498,0.854004
1563815760322967,0.316406,-0.105469,0.856934
1563815760348952,0.321777,-0.105469,0.852051
1563815760368940,0.315918,-0.104492,0.86084
1563815760382932,0.323242,-0.10498,0.854492
1563815760406933,0.319336,-0.100586,0.857422
1563815760429906,0.323242,-0.100098,0.848145
1563815760442897,0.320801,-0.101563,0.852539
1563815760466884,0.323242,-0.10498,0.847168
1563815760488870,0.326172,-0.104004,0.853027
1563815760509859,0.320801,-0.0991211,0.849121
1563815760526849,0.317383,-0.0996094,0.848633
1563815760549841,0.321777,-0.103027,0.847656
1563815760569826,0.323242,-0.0961914,0.849121
1563815760586816,0.318359,-0.0942383,0.842773
1563815760608803,0.321777,-0.0976563,0.853516
1563815760630802,0.325195,-0.0981445,0.852539
1563815760646782,0.322754,-0.0991211,0.853516
1563815760668768,0.321289,-0.0986328,0.855957
1563815760689756,0.319336,-0.0976563,0.851563
1563815760706746,0.32373,-0.100586,0.852051
1563815760728734,0.319824,-0.0961914,0.853516
1563815760749722,0.321289,-0.102539,0.852539
1563815760766712,0.319336,-0.100586,0.856934
1563815760788700,0.318359,-0.101074,0.855957
1563815760817682,0.317871,-0.100586,0.851074
1563815760826678,0.322266,-0.0981445,0.853516
1563815760848665,0.324219,-0.0976563,0.854492
1563815760869653,0.327148,-0.101074,0.853027
1563815760886644,0.316895,-0.100586,0.852539
1563815760908633,0.320313,-0.097168,0.854492
1563815760931618,0.321289,-0.0981445,0.856934
1563815760946609,0.324707,-0.0976563,0.853027
1563815760968596,0.320801,-0.100098,0.850098
1563815760991583,0.317383,-0.0927734,0.848633
1563815761006575,0.320801,-0.09375,0.850586
1563815761028561,0.319824,-0.0957031,0.853027
1563815761051548,0.323242,-0.0991211,0.853027
1563815761066539,0.319336,-0.101563,0.855957
1563815761088527,0.317871,-0.0957031,0.853516
1563815761111514,0.316895,-0.0952148,0.853516
1563815761125506,0.323242,-0.0952148,0.852051
1563815761149492,0.324219,-0.0981445,0.851563
1563815761171481,0.321777,-0.0991211,0.84668
1563815761185472,0.321289,-0.100586,0.850586
1563815761209458,0.324219,-0.09375,0.853027
1563815761231446,0.32666,-0.0942383,0.852051
1563815761245438,0.32373,-0.0991211,0.850586
1563815761269424,0.324707,-0.100098,0.847656
1563815761291410,0.322266,-0.097168,0.85498
1563815761305403,0.328125,-0.0947266,0.849609
1563815761329389,0.327637,-0.0957031,0.849121
1563815761351377,0.328125,-0.0961914,0.845703
1563815761374363,0.32373,-0.0957031,0.851563
1563815761389355,0.325684,-0.0942383,0.848145
1563815761411342,0.323242,-0.0947266,0.853516
1563815761432330,0.324219,-0.0981445,0.851074
1563815761449321,0.326172,-0.097168,0.851074
1563815761471308,0.328125,-0.0991211,0.855957
1563815761492295,0.327637,-0.0917969,0.853027
1563815761508287,0.330078,-0.0927734,0.848633
1563815761537271,0.334473,-0.0952148,0.857422
1563815761552262,0.331055,-0.0957031,0.848145
1563815761569253,0.330078,-0.0976563,0.849121
1563815761591239,0.332031,-0.0942383,0.844238
1563815761612227,0.330566,-0.0991211,0.848633
1563815761629219,0.325684,-0.0947266,0.842773
1563815761651205,0.327637,-0.0922852,0.848633
1563815761672193,0.330078,-0.0952148,0.845215
1563815761689183,0.330078,-0.101074,0.84668
1563815761711171,0.333008,-0.0981445,0.848145
1563815761732159,0.336914,-0.0898438,0.851563
1563815761749149,0.338379,-0.090332,0.847656
1563815761771136,0.339355,-0.0942383,0.852051
1563815761792124,0.339355,-0.0883789,0.851074
1563815761815111,0.344238,-0.0908203,0.847168
1563815761831103,0.335938,-0.0932617,0.850098
1563815761852090,0.338867,-0.0927734,0.847656
1563815761876076,0.339844,-0.0927734,0.847656
1563815761891067,0.337402,-0.090332,0.849121
1563815761914054,0.34082,-0.0908203,0.852051
1563815761929045,0.346191,-0.0966797,0.845215
1563815761952033,0.341797,-0.0932617,0.850098
1563815761974020,0.333496,-0.0947266,0.848145
1563815761989011,0.336426,-0.0932617,0.847168
1563815762010999,0.341309,-0.0922852,0.84668
1563815762033986,0.337402,-0.0957031,0.840332
1563815762047977,0.337402,-0.0927734,0.843262
1563815762071964,0.334473,-0.090332,0.848145
1563815762093951,0.336914,-0.0908203,0.850098
1563815762099947,0.338379,-0.0947266,0.847168
1563815762115938,0.336426,-0.0913086,0.845703
1563815762136926,0.341309,-0.09375,0.847656
1563815762158914,0.335938,-0.0922852,0.84375
1563815762175905,0.337891,-0.0961914,0.846191
1563815762196901,0.334961,-0.0952148,0.844727
1563815762218880,0.338379,-0.0991211,0.845703
1563815762233870,0.338379,-0.0952148,0.841309
1563815762256857,0.336914,-0.0942383,0.844727
1563815762278844,0.335449,-0.0893555,0.84668
1563815762294836,0.333984,-0.0908203,0.841309
1563815762316823,0.337402,-0.0917969,0.848633
1563815762339810,0.336914,-0.090332,0.841797
1563815762354801,0.334473,-0.0893555,0.848633
1563815762376789,0.336426,-0.0849609,0.848633
1563815762399775,0.335449,-0.0908203,0.846191
1563815762414766,0.343262,-0.090332,0.846191
1563815762436754,0.335449,-0.0893555,0.842285
1563815762459741,0.334473,-0.0883789,0.851074
1563815762474731,0.332031,-0.0913086,0.846191
1563815762496722,0.333008,-0.0932617,0.841309
1563815762519707,0.337891,-0.0839844,0.84668
1563815762535697,0.338379,-0.0839844,0.845703
1563815762556705,0.339355,-0.0917969,0.84668
1563815762579673,0.339355,-0.0883789,0.843262
1563815762595663,0.337402,-0.0864258,0.848633
1563815762616651,0.336914,-0.0869141,0.845703
1563815762640637,0.333984,-0.0913086,0.843262
1563815762655629,0.337891,-0.090332,0.846191
1563815762693607,0.335449,-0.0888672,0.839844
1563815762699606,0.337402,-0.0898438,0.84375
1563815762715594,0.338379,-0.0913086,0.84668
1563815762744578,0.333984,-0.0893555,0.848633
1563815762762567,0.34082,-0.0898438,0.849609
1563815762775559,0.337402,-0.0908203,0.844238
1563815762798547,0.341797,-0.0854492,0.84668
1563815762822533,0.338379,-0.0805664,0.851074
1563815762837524,0.34375,-0.0883789,0.847168
1563815762856516,0.338379,-0.0927734,0.84375
1563815762879499,0.337891,-0.0888672,0.854004
1563815762897490,0.337402,-0.0908203,0.84668
1563815762924476,0.340332,-0.0883789,0.844238
1563815762934468,0.34082,-0.0913086,0.845215
1563815762957456,0.336914,-0.0874023,0.842285
1563815762984441,0.341309,-0.0844727,0.841797
1563815762994434,0.337402,-0.0844727,0.850586
1563815763017422,0.338867,-0.0859375,0.846191
1563815763036411,0.338867,-0.078125,0.843262
1563815763054399,0.337891,-0.078125,0.838379
1563815763077387,0.34082,-0.0800781,0.837891
1563815763096376,0.336426,-0.0771484,0.837891
1563815763114366,0.338867,-0.078125,0.847656
1563815763137352,0.339844,-0.0776367,0.837891
1563815763156342,0.345703,-0.081543,0.839355
1563815763174331,0.344727,-0.0825195,0.84082
1563815763204314,0.344238,-0.0791016,0.84375
1563815763217307,0.353027,-0.0849609,0.842773
1563815763234296,0.350098,-0.0917969,0.848633
1563815763264280,0.353516,-0.0893555,0.84668
1563815763277272,0.352051,-0.0864258,0.852051
1563815763295262,0.354492,-0.0952148,0.848633
1563815763317249,0.353516,-0.0932617,0.850586
1563815763337239,0.358887,-0.0947266,0.851563
1563815763355227,0.354004,-0.0913086,0.845215
1563815763377215,0.356445,-0.0888672,0.850586
1563815763397205,0.356445,-0.0869141,0.84668
1563815763415193,0.353516,-0.0878906,0.838867
1563815763437180,0.348633,-0.0854492,0.839355
1563815763458169,0.348145,-0.0766602,0.837891
1563815763482154,0.349609,-0.0751953,0.835938
1563815763497145,0.352051,-0.0761719,0.838867
1563815763518134,0.351074,-0.0756836,0.84375
1563815763539122,0.351563,-0.0761719,0.836426
1563815763556115,0.354004,-0.0786133,0.844727
1563815763577119,0.353516,-0.0786133,0.833008
1563815763594090,0.354004,-0.078125,0.837402
1563815763616079,0.352539,-0.0839844,0.834473
1563815763637085,0.351563,-0.0820313,0.836426
1563815763654058,0.35498,-0.0878906,0.83252
1563815763676062,0.347656,-0.0952148,0.842285
1563815763705026,0.351074,-0.101563,0.82959
1563815763714021,0.352051,-0.102051,0.830566
1563815763736010,0.349609,-0.101074,0.831055
1563815763758997,0.348145,-0.108887,0.833008
1563815763773987,0.352539,-0.105469,0.833496
1563815763796974,0.359863,-0.105957,0.831055
1563815763818962,0.364258,-0.110352,0.822266
1563815763833952,0.361328,-0.104004,0.82959
1563815763856939,0.370117,-0.0942383,0.821777
1563815763878927,0.376953,-0.0966797,0.819336
1563815763892919,0.382324,-0.103027,0.833008
1563815763916905,0.398438,-0.10498,0.833008
1563815763938892,0.414551,-0.103027,0.845215
1563815763952885,0.42627,-0.0932617,0.852051
1563815763982867,0.411133,-0.0839844,0.845215
1563815763998858,0.386719,-0.0795898,0.83252
1563815764012869,0.367188,-0.0874023,0.816895
1563815764036836,0.360352,-0.110352,0.814453
1563815764058824,0.366211,-0.126953,0.810059
1563815764072820,0.38623,-0.126953,0.814941
1563815764096803,0.401855,-0.116699,0.810547
1563815764118789,0.402832,-0.112305,0.81543
1563815764133781,0.411133,-0.116211,0.82373
1563815764156770,0.40918,-0.125,0.830078
1563815764178755,0.40918,-0.131836,0.825195
1563815764193746,0.410156,-0.123047,0.825684
1563815764216735,0.406738,-0.117676,0.818848
1563815764238720,0.397949,-0.110352,0.816406
1563815764253713,0.396973,-0.104492,0.822266
1563815764276700,0.400391,-0.106934,0.820801
1563815764298686,0.394531,-0.106934,0.821289
1563815764319674,0.391602,-0.101563,0.818848
1563815764336665,0.394043,-0.097168,0.811523
1563815764358653,0.400391,-0.0942383,0.817383
1563815764379659,0.402832,-0.102539,0.810547
1563815764396631,0.40332,-0.103516,0.816895
1563815764426613,0.404297,-0.108398,0.818848
1563815764439606,0.402344,-0.111816,0.817871
1563815764456596,0.408203,-0.111328,0.825195
1563815764478583,0.403809,-0.118164,0.821777
1563815764499571,0.411133,-0.113281,0.830566
1563815764517560,0.418457,-0.116211,0.827637
1563815764538564,0.412109,-0.119629,0.814453
1563815764559555,0.401855,-0.118164,0.821777
1563815764576527,0.397461,-0.11084,0.813477
1563815764598515,0.398926,-0.107422,0.808594
1563815764620504,0.398438,-0.104492,0.810547
1563815764636492,0.404785,-0.105469,0.808105
1563815764658498,0.404297,-0.108398,0.808594
1563815764680470,0.407715,-0.105957,0.811523
1563815764703453,0.412598,-0.106934,0.812988
1563815764718464,0.414551,-0.121582,0.80957
1563815764741431,0.411133,-0.135254,0.817383
1563815764756423,0.410645,-0.135254,0.822754
1563815764779410,0.414551,-0.121582,0.823242
1563815764801397,0.416504,-0.116699,0.813965
1563815764816388,0.418457,-0.11377,0.821289
1563815764839390,0.416504,-0.111328,0.807617
1563815764867379,0.417969,-0.107422,0.812012
1563815764876354,0.424316,-0.106445,0.807617
1563815764899342,0.42334,-0.104492,0.805176
1563815764921328,0.418945,-0.106445,0.807129
1563815764935339,0.415039,-0.104004,0.806152
1563815764959307,0.415527,-0.112793,0.818359
1563815764981294,0.416016,-0.116699,0.818359
1563815764996289,0.407227,-0.119629,0.814453
1563815765019291,0.406738,-0.119629,0.808594
1563815765041279,0.413086,-0.112793,0.815918
1563815765056254,0.414551,-0.116699,0.815918
1563815765079238,0.418457,-0.12207,0.81543
1563815765109222,0.411621,-0.124512,0.811523
1563815765116217,0.416504,-0.121094,0.813965
1563815765145200,0.418457,-0.11377,0.818848
1563815765161191,0.415527,-0.11084,0.813477
1563815765176187,0.410156,-0.109375,0.816406
1563815765206165,0.409668,-0.111816,0.8125
1563815765221160,0.408691,-0.110352,0.809082
1563815765242148,0.406738,-0.105957,0.812988
1563815765259135,0.410156,-0.103027,0.812012
1563815765281125,0.411621,-0.111816,0.805176
1563815765302110,0.410645,-0.109863,0.814453
1563815765319101,0.412598,-0.108398,0.811035
1563815765341088,0.415527,-0.108398,0.813965
1563815765362077,0.415039,-0.110352,0.814453
1563815765379067,0.413574,-0.114746,0.810059
1563815765401056,0.412109,-0.112793,0.81543
1563815765424040,0.412598,-0.115723,0.806641
1563815765439032,0.413574,-0.110352,0.817383
1563815765461018,0.411133,-0.108398,0.813477
1563815765482026,0.419434,-0.109375,0.813965
1563815765499000,0.419922,-0.108398,0.814941
1563815765520985,0.42334,-0.113281,0.813477
1563815765541972,0.415039,-0.112305,0.814453
1563815765558963,0.416504,-0.108398,0.812988
1563815765580953,0.415527,-0.109375,0.812988
1563815765602941,0.411133,-0.112793,0.808594
1563815765618931,0.410156,-0.111816,0.807129
1563815765641918,0.406738,-0.101563,0.811035
1563815765662903,0.414551,-0.103027,0.809082
