timestamp,emg1,emg2,emg3,emg4,emg5,emg6,emg7,emg8
1564164020591896,34,-24,-8,-23,-10,-1,2,3
1564164020591896,-63,-5,10,35,25,15,27,0
1564164020592395,-19,-8,-4,-4,-5,-8,-2,3
1564164020592395,78,11,3,4,2,-1,-6,6
1564164020593393,-65,-16,-8,-32,-22,-9,-16,-38
1564164020593393,-28,4,2,22,8,6,8,4
1564164020596887,105,9,7,-6,4,10,24,68
1564164020596887,-123,-16,-6,-23,-27,-26,-28,-46
1564164020603375,-50,-5,-13,41,22,3,-5,-5
1564164020603375,25,12,3,-13,-4,0,-6,-14
1564164020611859,-14,10,1,-11,-11,-2,-1,12
1564164020611859,127,5,-13,16,9,12,24,43
1564164020619844,-80,-14,-1,-9,-2,-7,-6,-39
1564164020619844,25,5,-7,-4,-10,-14,-23,-15
1564164020633319,-43,-27,-9,-19,-3,-5,-12,-21
1564164020633319,-7,-12,-4,0,0,3,5,15
1564164020644798,24,3,-4,3,-7,-6,-24,-7
1564164020644798,30,-13,-2,12,12,7,33,13
1564164020664761,-44,11,6,-28,-13,-4,-11,-2
1564164020664761,8,-12,-4,20,12,4,7,12
1564164020666260,10,62,20,7,5,10,22,12
1564164020666260,-29,-40,-13,7,-2,-12,-32,-14
1564164020685722,24,-1,-1,-5,-14,-3,6,-26
1564164020685722,-91,-3,5,22,14,8,15,16
1564164020720159,-49,-21,-8,-4,-14,-9,-7,-33
1564164020720159,-19,-8,4,15,16,6,-7,-6
1564164020720657,55,11,2,-15,-2,1,18,27
1564164020720657,44,44,10,11,0,5,5,-3
1564164020724650,-3,9,-2,-4,2,-1,-7,4
1564164020724650,-36,-28,8,-11,-4,5,16,-10
1564164020726147,41,0,-7,29,10,0,-13,7
1564164020726147,-19,-12,-5,-17,-9,-6,0,-9
1564164020739621,-9,21,16,-6,4,6,4,-4
1564164020739621,4,9,-13,-5,-12,-8,0,-11
1564164020741118,29,-31,11,11,13,10,9,31
1564164020741118,-81,16,0,-15,-12,-4,1,-14
1564164020753097,64,-25,-3,32,14,7,12,16
1564164020753097,-34,18,-9,-41,-13,-2,-7,-4
1564164020762080,55,9,11,17,6,0,-1,9
1564164020762080,85,10,-3,28,1,-2,0,18
1564164020768069,-104,-27,-10,-6,12,-2,-21,-38
1564164020768069,37,5,18,7,2,8,8,-1
1564164020791026,-7,-11,-18,-17,-15,-4,5,10
1564164020791026,-19,-16,6,15,8,-5,-17,-20
1564164020792025,10,25,3,-19,-13,-4,-4,12
1564164020792025,68,5,3,27,18,12,11,19
1564164020805499,-80,-18,-4,-7,-3,-4,-12,-38
1564164020805499,49,-5,-6,-33,-20,-7,2,12
1564164020812985,-2,-21,-22,9,-4,-9,-13,-10
1564164020812985,28,45,8,16,7,-8,4,20
1564164020828956,-108,-55,-12,-18,-20,-6,-16,-38
1564164020828956,15,-24,-12,-3,13,-6,-10,2
1564164020829456,71,22,9,-2,-7,2,16,18
1564164020829456,-66,4,-3,-5,-5,2,10,-15
1564164020851413,-9,11,-2,-14,-13,-11,-15,4
1564164020851413,-33,-17,15,30,10,4,-7,-22
1564164020851912,-6,-3,-13,-32,-3,-2,0,-3
1564164020851912,20,-9,-7,-11,-6,2,-3,-7
1564164020865389,-24,5,6,23,10,1,7,1
1564164020865389,37,2,0,-34,-8,2,0,17
1564164020873376,-69,-1,9,27,-2,1,4,-15
1564164020873376,28,-21,-7,-6,-1,-3,-11,3
1564164020890342,-31,23,-5,-37,-15,-2,-9,-21
1564164020890342,19,1,-2,30,17,16,31,29
1564164020890841,71,17,2,2,-2,-8,-14,12
1564164020890841,21,1,9,12,0,-6,0,22
1564164020911302,-25,-34,3,13,8,-5,-3,-38
1564164020911302,-114,4,-23,-15,-2,-4,-15,-27
1564164020912304,69,-48,-7,-17,-7,7,14,22
1564164020912304,4,30,24,22,14,10,-2,3
1564164020925776,-38,26,1,-24,-16,-2,10,-1
1564164020925776,41,6,-7,16,3,-3,15,15
1564164020933261,34,17,8,-13,-5,-3,-2,14
1564164020933261,-69,-27,-17,-38,-34,-13,-18,-28
1564164020948734,89,-9,-5,75,49,3,-4,22
1564164020948734,-54,13,6,-25,-18,-7,-10,-34
1564164020949731,-8,2,2,14,2,2,3,13
1564164020949731,83,7,-20,2,9,-9,-2,5
1564164020971191,-42,2,14,-18,-14,2,-1,-11
1564164020971191,33,-6,-10,-8,-11,-13,-22,-8
1564164020972190,-34,-22,6,32,31,26,38,30
1564164020972190,21,32,4,6,-9,-11,-6,-2
1564164020985665,46,4,0,-5,-2,1,5,20
1564164020985665,-26,-14,-5,-9,-6,0,1,6
1564164020993150,-28,-3,-4,-21,-18,-11,-12,-26
1564164020993150,-2,-1,0,0,9,1,1,10
1564164021017106,6,-13,0,7,1,2,5,0
1564164021017106,49,18,-4,-25,-3,0,-13,0
1564164021017605,-47,-13,-9,-12,-16,-7,4,-9
1564164021017605,-84,-22,-7,9,7,2,5,-3
1564164021031079,64,12,8,-10,-15,-18,-42,-20
1564164021031079,-47,-41,-2,37,23,13,18,-10
1564164021032079,45,23,0,-17,7,5,-7,6
1564164021032079,-15,6,-4,-6,-8,-10,-9,-15
1564164021045553,28,5,1,11,-1,4,9,21
1564164021045553,-37,-27,-5,-14,-7,-3,4,-17
1564164021053040,36,9,-8,-7,-11,-14,-17,-10
1564164021053040,-41,-23,3,15,12,2,1,-1
1564164021069009,-36,37,0,-25,-10,2,-5,-10
1564164021069009,5,-17,-2,3,7,-4,-6,-1
1564164021069508,44,4,8,29,18,9,15,33
1564164021069508,6,-12,-3,-9,-14,1,0,10
1564164021091467,-11,13,7,-7,-12,-5,-25,-24
1564164021091467,12,-13,-14,4,-3,14,56,43
1564164021091967,-53,14,0,-2,8,-5,-25,-37
1564164021091967,11,2,11,3,-8,-4,-4,-4
1564164021113927,39,-13,-18,4,3,5,30,29
1564164021113927,-31,16,11,-5,-8,-16,-54,-39
1564164021114925,-10,5,-6,-31,-14,-1,26,13
1564164021114925,-5,-19,0,12,17,11,10,10
1564164021128898,4,2,-3,0,14,15,18,7
1564164021128898,5,5,8,7,-16,-9,-13,-6
1564164021129397,64,-9,-5,3,2,4,9,24
1564164021129397,-14,9,-3,-14,-4,-10,-19,-17
1564164021151357,2,11,5,4,0,6,18,9
1564164021151357,12,-32,-7,-2,11,3,5,18
1564164021151856,-88,7,18,11,-1,-1,-18,-40
1564164021151856,45,1,-7,-17,-20,2,7,10
1564164021173815,-26,4,6,26,18,-1,-6,-2
1564164021173815,4,-2,1,-8,-15,-3,-6,2
1564164021174813,-51,-34,-7,20,3,-5,1,-1
1564164021174813,38,24,1,5,1,2,-1,-2
1564164021188787,-6,17,-6,-32,-7,-10,-19,-25
1564164021188787,76,45,16,20,7,4,8,20
1564164021189785,-27,-6,-16,-20,-12,-11,14,9
1564164021189785,42,0,6,6,7,9,9,17
1564164021211245,-29,-8,-1,-10,-8,-3,1,-1
1564164021211245,-15,-8,1,14,15,8,-9,-12
1564164021212243,51,20,3,-12,-9,-3,-2,6
1564164021212243,-86,-28,-7,17,1,-9,-6,-34
1564164021242188,-19,-11,7,-19,-14,-5,-1,4
1564164021242188,-5,-5,-5,-7,3,-1,-3,7
1564164021242687,44,40,8,13,9,5,-1,-14
1564164021242687,-39,-36,-5,0,-6,-7,-22,1
1564164021248675,57,5,-7,12,8,2,19,6
1564164021248675,-50,-20,-5,-20,-4,-3,8,-2
1564164021249674,-13,-2,0,17,1,9,9,0
1564164021249674,5,-4,-4,-31,-16,-16,-15,-10
1564164021271133,-40,-7,5,10,10,16,13,-20
1564164021271133,0,6,8,17,-12,-9,-17,-5
1564164021272132,15,-12,-24,-15,10,4,28,16
1564164021272132,28,9,3,-9,-8,1,4,6
1564164021295088,-36,-11,-7,-13,-4,2,4,-4
1564164021295088,44,32,3,7,-2,-12,-17,-9
1564164021295588,-19,-13,15,15,13,4,-23,-4
1564164021295588,37,16,8,-8,-5,2,21,8
1564164021308564,-6,-38,-23,-2,7,1,4,12
1564164021308564,-59,10,2,-8,-1,1,0,-19
1564164021309563,46,-6,12,22,-10,-1,1,21
1564164021309563,5,9,-6,-1,16,0,-20,-12
1564164021331521,76,32,7,-19,-6,0,14,27
1564164021331521,-80,1,4,19,3,5,-4,-19
1564164021332021,60,-20,-14,-31,-24,-11,-26,13
1564164021332021,7,-4,-7,20,20,8,30,10
1564164021354478,4,-15,-6,-5,-6,-4,-14,3
1564164021354478,52,7,-5,5,0,2,14,16
1564164021355477,-19,10,4,-23,1,0,-9,-20
1564164021355477,-25,-15,-9,1,-12,-8,-24,-12
1564164021369451,-6,13,10,21,3,10,30,21
1564164021369451,44,-15,-20,-41,-3,-5,6,0
1564164021369950,-20,22,14,31,-1,-11,-20,-8
1564164021369950,46,-32,-24,-26,-7,-7,-10,-4
1564164021391411,-72,39,14,-7,-15,-6,-20,-36
1564164021391411,31,-28,4,35,29,13,28,25
1564164021391910,-12,8,1,-5,-4,-4,3,-6
1564164021391910,-47,2,0,-1,-3,0,1,-6
1564164021414367,51,11,6,-20,-17,-12,-32,7
1564164021414367,2,12,-3,-9,0,7,19,12
1564164021415365,-88,-36,-4,-5,-8,-6,-12,-35
1564164021415365,38,4,6,30,23,5,-3,4
1564164021428841,13,-2,-4,-12,-5,-4,10,0
1564164021428841,14,12,3,-1,-10,-2,-10,17
1564164021429340,-44,-13,-3,5,8,5,3,-16
1564164021429340,0,13,4,-2,-13,-3,-11,1
1564164021451299,13,-20,-11,3,2,-3,2,-6
1564164021451299,-3,-6,3,12,14,0,-19,-2
1564164021451798,-32,-3,-6,-11,-1,2,19,-8
1564164021451798,-40,11,7,-10,-3,5,-6,-10
1564164021474256,26,8,-4,16,1,-6,12,17
1564164021474256,-18,-10,6,-25,-11,-2,-1,-14
1564164021475255,-2,1,-4,0,-14,-6,-7,-15
1564164021475255,21,9,2,-4,11,-4,-3,9
1564164021488729,-45,-4,0,29,14,1,-5,-13
1564164021488729,18,-16,-5,-26,-11,-4,-7,-4
1564164021489727,-6,-5,-4,17,-1,-5,-15,0
1564164021489727,-10,-15,-3,-10,-13,-11,1,-4
1564164021519673,42,20,-11,-1,3,3,3,8
1564164021519673,-56,-5,6,-4,-1,-2,0,-17
1564164021520172,30,22,1,-7,-3,-4,-18,3
1564164021520172,-20,-24,-14,5,-4,0,23,0
1564164021534644,-17,-17,-4,-12,-6,-6,-21,-16
1564164021534644,6,7,11,7,-10,-7,-11,-7
1564164021535143,33,15,-11,-14,11,1,7,12
1564164021535143,12,-4,4,12,12,11,13,8
1564164021548618,-3,-1,-1,-5,0,5,-1,-4
1564164021548618,14,25,10,26,-2,-8,-10,18
1564164021549617,14,-17,-7,-15,2,-2,1,-1
1564164021549617,18,8,-1,-24,-12,-4,-22,-11
1564164021571576,10,-12,-10,10,2,7,33,21
1564164021571576,23,-3,-7,-2,1,4,-12,-1
1564164021572574,-48,19,13,-8,-6,-2,9,10
1564164021572574,9,7,11,26,11,8,6,-9
1564164021594533,-21,-16,-1,-40,-8,-9,-33,-18
1564164021594533,50,13,2,30,13,9,38,36
1564164021595531,-26,-17,-12,-23,-10,-5,-11,-18
1564164021595531,10,10,8,28,10,3,10,28
1564164021609008,-10,0,-4,-2,1,1,0,-26
1564164021609008,-19,-1,-11,-7,-9,-8,-10,-9
1564164021609505,54,4,2,-17,-11,-9,-32,1
1564164021609505,-26,-10,-8,-1,-3,8,29,10
1564164021631464,64,2,23,42,29,11,6,26
1564164021631464,-42,-3,-4,-17,-5,2,-3,-26
1564164021631963,10,3,-4,13,-3,2,4,-6
1564164021631963,-12,12,2,-39,-25,-16,-27,-7
1564164021654421,-33,-17,-7,12,-5,-2,-3,-7
1564164021654421,63,5,-12,-4,9,10,16,3
1564164021655420,35,7,6,13,9,1,-7,7
1564164021655420,12,15,-12,-24,-11,-1,5,11
1564164021667896,-20,-16,-1,13,9,-5,-6,-2
1564164021667896,-22,-11,-6,-22,-14,-7,-13,-12
1564164021676381,-16,6,11,10,4,3,7,-7
1564164021676381,80,-2,-6,17,8,7,7,21
1564164021699341,34,30,6,-21,-17,-11,-3,2
1564164021699341,-81,-34,-6,-16,6,6,-4,-19
1564164021700836,2,-1,5,32,6,1,22,9
1564164021700836,-40,3,0,-1,6,-2,-6,-1
1564164021713312,-22,1,5,-15,-11,-5,-16,-18
1564164021713312,55,1,-18,-6,-8,-4,2,10
1564164021722295,-5,-8,6,0,3,0,-6,-9
1564164021722295,-19,9,10,16,8,2,2,0
1564164021736768,-4,-21,-13,-5,-7,-7,-7,5
1564164021736768,25,31,5,-7,-11,-12,-19,-10
1564164021738765,34,10,1,-5,-1,10,22,18
1564164021738765,-56,-24,-1,11,0,-9,-27,-29
1564164021759227,-21,-7,2,0,-1,1,17,3
1564164021759227,-9,9,6,8,3,6,10,16
1564164021761223,-36,-31,-19,-7,-3,-9,-16,-20
1564164021761223,19,10,-5,-11,-4,-5,-11,-4
1564164021773700,48,5,6,0,-3,8,34,17
1564164021773700,-6,-6,-1,-6,-2,-2,-12,-6
1564164021780687,-37,6,-3,-14,-7,-6,-1,-10
1564164021780687,26,-2,8,30,1,3,3,11
1564164021797655,-22,-11,-7,10,11,-5,-19,-13
1564164021797655,-65,-5,-3,-15,0,1,8,-7
1564164021799153,63,14,1,4,1,3,-3,13
1564164021799153,-51,-19,0,-17,-17,-3,6,-14
1564164021819615,-10,15,-1,3,2,-5,-33,-22
1564164021819615,1,-5,7,4,5,5,14,6
1564164021821113,-23,-3,0,-2,-2,0,7,3
1564164021821113,25,0,-1,-9,-2,0,6,4
1564164021833589,7,-9,-6,4,-1,3,9,11
1564164021833589,-47,19,-3,-18,-9,-15,-26,-16
1564164021848061,65,-5,2,9,7,8,24,22
1564164021848061,-12,-4,-2,-6,0,2,-4,-6
1564164021857045,4,4,-4,7,0,4,2,-8
1564164021857045,25,13,12,14,-4,-11,-8,7
1564164021858543,-29,-17,-2,-23,-7,-3,-6,-5
1564164021858543,10,-3,-8,3,9,4,4,4
1564164021879503,-11,0,3,6,-2,-3,1,10
1564164021879503,16,-19,-9,-1,-2,5,2,-5
1564164021881001,-25,11,6,6,-3,1,16,-7
1564164021881001,10,-4,-8,-8,-3,-2,-2,-2
1564164021893976,-54,-13,-2,-6,-1,1,-15,-15
1564164021893976,59,7,2,14,4,2,16,16
1564164021900465,-13,-1,-1,-4,1,-1,-7,-6
1564164021900465,-1,3,-11,-15,-8,-6,-8,-10
1564164021916934,-14,4,2,-1,4,1,5,7
1564164021916934,-2,-8,-3,-16,-10,-3,-13,0
1564164021922923,-15,6,3,32,23,12,14,3
1564164021922923,-2,-16,10,5,-3,-5,-2,-2
1564164021939392,-8,12,-14,-26,-10,-9,-17,-5
1564164021939392,-1,-24,-8,21,7,5,5,11
1564164021940890,-4,-7,-2,-13,-6,0,3,-12
1564164021940890,9,-2,4,-2,-4,-1,-2,4
1564164021953865,-24,0,4,-1,2,2,10,-11
1564164021953865,-3,12,0,-8,-5,-4,-2,-7
1564164021960852,14,-2,-6,-4,-6,-7,-11,8
1564164021960852,-10,13,3,4,4,4,11,0
1564164021976822,17,-11,-1,-2,-2,-1,-11,-1
1564164021976822,-11,-12,-3,-2,2,0,15,0
1564164021978819,18,4,-6,-7,-4,-7,-12,0
1564164021978819,-24,1,5,-8,-4,3,3,-9
1564164022000778,-39,-3,-3,12,12,7,18,5
1564164022000778,20,-2,4,9,3,2,-2,5
1564164022002774,-4,-5,-5,-11,-3,-6,-7,-3
1564164022002774,18,7,4,4,-5,-3,-2,2
1564164022013753,-12,-8,-12,-13,-10,-10,-12,-4
1564164022013753,42,10,3,1,2,8,25,22
1564164022020741,-72,-27,-2,-2,2,4,-4,-34
1564164022020741,28,21,-3,-23,-6,-4,-2,8
1564164022037216,21,-24,3,24,1,0,21,15
1564164022037216,-28,5,0,10,8,0,-7,-8
1564164022038708,38,6,3,-4,-9,-5,-15,8
1564164022038708,-41,-17,-4,-8,3,5,3,-15
1564164022059669,26,9,3,5,-9,2,2,5
1564164022059669,-2,8,-10,-13,-1,-5,-19,-15
1564164022061166,-1,-2,4,5,2,0,8,12
1564164022061166,1,-6,-3,5,-1,-6,-7,-5
1564164022074142,-6,5,3,-5,2,-1,-8,-8
1564164022074142,24,-4,-3,-10,-16,-4,2,0
1564164022080629,-4,5,2,15,10,5,4,8
1564164022080629,4,3,2,2,-4,-8,-7,-1
1564164022097099,18,3,-11,-11,4,4,12,7
1564164022097099,-35,-8,7,-4,0,1,-4,-18
1564164022098597,4,-7,-6,9,3,-5,-5,4
1564164022098597,-7,6,-3,1,-4,-1,3,-2
1564164022119059,23,9,5,1,1,2,7,7
1564164022119059,-7,4,3,-2,2,-4,-7,-1
1564164022125546,-22,-10,-13,-39,-18,-8,-3,-15
1564164022125546,46,-10,-1,36,6,1,1,16
1564164022133034,-5,16,9,-9,-4,-4,-3,-4
1564164022133034,-17,-15,-13,-11,-6,0,2,-2
1564164022142015,13,-1,7,12,6,1,-5,-1
1564164022142015,8,-8,-12,-7,3,-2,-2,-3
1564164022156988,8,13,5,0,-7,1,-5,2
1564164022156988,-32,-19,3,3,-2,-4,-8,-9
1564164022158485,17,13,0,1,3,3,9,9
1564164022158485,-16,-4,2,-8,1,6,5,-6
1564164022179446,15,-8,-5,-3,-5,-7,-18,2
1564164022179446,0,23,8,-3,2,0,1,-10
1564164022180943,21,-2,-2,-3,-12,-3,-3,12
1564164022180943,-61,-23,-4,11,12,1,13,-4
1564164022192921,0,6,2,3,1,-2,-12,-3
1564164022192921,16,-6,-3,-10,-10,-5,-6,4
1564164022201904,-36,9,2,4,4,4,3,-19
1564164022201904,28,6,-2,0,0,-4,-4,13
1564164022218375,-43,-17,-1,-3,-2,-1,-3,-17
1564164022218375,-1,-6,3,-9,-2,-5,-4,2
1564164022219871,26,3,5,15,5,-1,-4,7
1564164022219871,-1,-1,-4,-6,-5,2,10,1
1564164022239334,8,8,-9,-5,4,2,6,-1
1564164022239334,-15,-4,4,-5,-5,-5,-21,-8
1564164022241331,16,10,0,2,-8,0,22,9
1564164022241331,37,-1,-2,-10,7,3,-2,14
1564164022261793,-40,-10,-2,13,-2,-7,-10,-15
1564164022261793,21,2,-2,-4,0,1,4,6
1564164022263791,-30,-7,-7,-3,1,2,-6,-1
1564164022263791,19,5,5,8,3,1,-1,-10
1564164022278264,2,6,3,-9,-8,-1,-1,4
1564164022278264,-15,-16,-8,2,2,-1,-2,-2
1564164022279760,31,-1,5,16,-5,-6,-1,4
1564164022279760,6,0,-12,-26,-6,-2,-4,-2
1564164022299224,-44,0,0,-12,-5,-2,8,-16
1564164022299224,52,11,2,23,9,5,0,13
1564164022301221,-9,-12,-7,-21,-14,-7,-8,-8
1564164022301221,-23,5,11,31,16,1,5,6
1564164022322182,-14,-2,-3,-7,-3,-1,-12,-15
1564164022322182,2,-1,2,6,0,1,10,9
1564164022323678,-5,1,-2,-22,-6,-1,-4,1
1564164022323678,-16,-23,-6,-3,-11,-3,-10,-16
1564164022337154,46,22,2,2,2,2,6,14
1564164022337154,-66,-7,1,-12,5,4,5,-15
1564164022338651,65,-3,1,33,-1,-2,-12,17
1564164022338651,-44,-1,-15,-10,10,6,24,-12
1564164022359610,11,-3,-1,-6,-1,-3,-9,6
1564164022359610,26,-7,-6,4,-8,-3,9,12
1564164022361108,-40,4,2,-11,8,-1,-10,-23
1564164022361108,6,7,1,6,-7,-5,-15,3
1564164022373085,11,-14,0,-1,-2,1,3,-3
1564164022373085,-41,10,-2,-4,-5,-1,-6,-10
1564164022382069,72,25,1,-24,1,3,14,26
1564164022382069,-46,-13,3,24,0,-4,-11,-17
1564164022396043,19,-16,-4,-6,4,3,7,7
1564164022396043,27,45,11,-8,-15,-9,-9,1
1564164022404528,-46,-54,-17,8,8,3,-3,-15
1564164022404528,-13,16,0,-35,8,12,19,3
1564164022419499,31,-14,-1,16,4,-3,-14,7
1564164022419499,-32,-9,0,8,0,-11,-1,-11
1564164022420997,-7,16,4,-4,-10,-3,3,4
1564164022420997,29,22,9,-14,-10,-7,-16,-2
1564164022432975,-34,-13,-4,8,-8,2,14,3
1564164022432975,24,-4,-2,-3,9,-2,-3,3
1564164022441960,-26,-10,-4,5,7,-10,-21,-27
1564164022441960,-42,-11,1,-15,-6,6,16,4
1564164022456931,41,14,3,18,-1,-1,-5,15
1564164022456931,-10,-23,-1,-14,6,18,19,-6
1564164022458428,-8,31,10,-2,1,-2,22,22
1564164022458428,47,2,-4,14,-7,-8,-10,-1
1564164022479388,-17,-16,-5,-6,0,-8,-1,0
1564164022479388,-28,12,14,15,5,1,-10,-7
1564164022480885,-27,-15,0,-6,0,4,-12,-26
1564164022480885,-6,10,10,3,1,-2,5,19
1564164022492865,50,11,6,8,-5,-8,-17,-4
1564164022492865,3,-21,-12,2,9,8,20,17
1564164022502346,-32,-20,-3,-14,-4,3,0,-25
1564164022502346,-27,0,-10,-21,-11,-12,-12,-6
1564164022516837,-7,4,7,4,0,4,-5,-9
1564164022516837,27,-3,-5,7,4,-10,-32,-14
1564164022518316,-25,6,8,14,-5,-4,8,-6
1564164022518316,29,-26,-5,9,-2,6,8,12
1564164022539296,-44,27,5,10,15,0,8,19
1564164022539296,65,-6,0,-17,-5,9,23,14
1564164022540774,57,-5,-22,-39,-20,-20,-27,-12
1564164022540774,-21,-10,-3,25,-4,2,-6,-20
1564164022561735,17,-46,-18,7,7,0,-3,-11
1564164022561735,10,29,6,8,-14,-12,0,14
1564164022563731,-4,8,4,-7,14,9,2,2
1564164022563731,-40,-26,3,5,-10,-6,-4,2
1564164022577209,64,6,-27,-90,-13,6,23,19
1564164022577209,-73,-36,-11,50,-12,-10,-19,-29
1564164022578707,43,-10,1,2,3,-12,-34,2
1564164022578707,20,15,-7,-2,9,-1,1,-16
1564164022599665,-29,5,11,44,18,29,51,26
1564164022599665,71,44,13,-109,-38,-11,-2,15
1564164022601168,35,-14,-19,67,5,-7,-11,9
1564164022601168,4,-13,-5,6,17,5,-4,-17
1564164022629609,-28,28,20,-27,-25,-7,-2,-11
1564164022629609,42,-9,-20,-3,-3,-18,-27,-18
1564164022631106,-78,-12,-7,15,7,19,17,28
1564164022631106,106,24,25,-26,4,7,37,54
1564164022637095,-126,-20,-6,29,1,-18,-48,-52
1564164022637095,32,-28,0,-26,-4,3,31,31
1564164022638593,-48,17,-6,-56,-22,-12,-33,-61
1564164022638593,-2,14,14,61,17,0,-6,6
1564164022659553,45,16,-1,-7,-4,-2,-6,-16
1564164022659553,-82,-34,-7,4,-4,-2,-7,-2
1564164022661050,-3,-40,-5,-11,-5,-4,16,16
1564164022661050,-37,20,15,-76,-48,-11,-6,-10
1564164022682015,-27,4,-2,94,57,10,13,-4
1564164022682015,30,20,-18,-4,20,18,14,17
1564164022683509,0,9,-9,20,-4,-2,-16,-14
1564164022683509,-46,2,-2,-60,-28,-23,-24,-29
1564164022696486,48,-7,14,-22,-30,-6,0,24
1564164022696486,115,6,15,64,6,-12,-26,-10
1564164022702973,-69,-30,-12,-5,28,22,46,44
1564164022702973,-94,-2,-11,-3,-6,-18,-65,-106
1564164022719442,13,7,9,-13,20,22,42,56
1564164022719442,53,13,13,24,26,16,19,56
1564164022720940,-39,-20,-30,-12,-46,-39,-50,-56
1564164022720940,-35,-8,5,43,23,16,27,24
1564164022741899,-26,-24,-7,-66,-40,-22,-18,-15
1564164022741899,24,30,3,34,29,9,-4,-20
1564164022743401,-64,8,37,-1,4,11,-3,-26
1564164022743401,127,-8,-34,-27,-15,-5,-14,16
1564164022756373,48,-6,-14,10,3,-9,5,57
1564164022756373,-128,-10,1,-37,-38,-2,54,-35
1564164022763361,81,57,33,71,54,17,11,44
1564164022763361,-5,-38,-38,-39,-23,-8,-36,-4
1564164022779334,-56,48,25,4,-12,-8,-7,-78
1564164022779334,-49,-11,-9,25,26,6,-21,-21
1564164022780828,107,0,16,9,6,1,6,27
1564164022780828,-57,25,14,14,14,20,33,46
1564164022801793,40,0,-2,1,-17,-4,-22,-1
1564164022801793,-80,-22,-25,-32,-4,-6,-10,-34
1564164022803287,25,26,21,-15,-3,3,27,36
1564164022803287,127,89,14,48,1,7,-6,20
1564164022816265,-53,-67,-35,-44,-16,-13,-50,-51
1564164022816265,76,2,43,86,43,24,55,63
1564164022830736,-13,48,12,-8,-20,-15,-18,-61
1564164022830736,25,-46,7,0,6,2,15,13
1564164022839719,-46,49,-13,-18,13,12,20,-6
1564164022839719,109,2,13,-16,-13,1,2,88
1564164022841216,-74,-14,-3,-20,-33,-11,-15,-36
1564164022841216,19,43,-16,10,26,12,58,39
1564164022862177,-102,-69,2,26,15,-5,-35,-41
1564164022862177,55,15,1,13,-6,-7,-9,21
1564164022863678,-100,-16,-14,-16,18,12,22,-5
1564164022863678,-23,-5,-1,-32,-30,-19,-14,-2
1564164022876151,111,21,12,13,3,0,8,41
1564164022876151,-62,52,8,24,14,12,-11,6
1564164022883137,96,-81,-50,-52,-18,-6,-7,4
1564164022883137,-110,-8,-1,19,-10,-22,-31,-60
1564164022907097,96,41,13,24,12,19,23,26
1564164022907097,-128,-79,-26,-42,-21,-21,-21,-68
1564164022908594,-30,74,30,13,7,13,12,4
1564164022908594,120,-41,1,30,24,13,18,64
1564164022922065,-117,-28,-18,-33,-24,-19,-27,-43
1564164022922065,-38,28,-3,-18,-19,-11,-3,-28
1564164022923563,-83,-9,21,-33,-9,8,-11,13
1564164022923563,33,-42,-26,64,37,16,37,9
1564164022936542,-64,-2,-12,-55,-33,-25,-23,-4
1564164022936542,19,12,5,59,38,13,1,-11
1564164022943028,-43,34,13,-6,-18,2,-10,1
1564164022943028,-88,-55,-6,-8,13,6,40,10
1564164022959996,14,30,6,-6,2,1,-7,-10
1564164022959996,-97,-21,-17,23,-22,-13,-14,8
1564164022961492,7,-34,-8,31,24,-3,-22,-26
1564164022961492,52,64,13,-44,-11,4,1,21
1564164022981955,-72,-37,-22,16,5,7,17,-61
1564164022981955,-20,-31,0,-42,-46,-34,-36,-31
1564164022983455,27,-12,-8,26,16,13,17,27
1564164022983455,-3,48,-1,-17,-6,-9,-12,-16
1564164022996428,37,-31,2,8,15,6,16,32
1564164022996428,-12,18,-3,-19,-6,11,2,-16
1564164023002915,20,-4,-11,1,-4,-16,-15,10
1564164023002915,0,-22,13,-4,4,-1,2,1
1564164023019388,-4,30,10,22,2,11,9,11
1564164023019388,52,-13,-13,-24,-5,-5,-17,-4
1564164023020882,78,-3,-13,9,-1,-5,0,7
1564164023020882,-128,-19,2,-28,-13,1,-11,-58
1564164023041845,41,-6,21,17,3,3,2,29
1564164023041845,-31,13,3,22,27,14,15,-7
1564164023043841,12,8,1,-13,4,-2,27,17
1564164023043841,31,30,3,-12,-24,-4,-32,7
1564164023055816,60,-43,-8,36,16,8,45,30
1564164023055816,13,-4,-11,-29,5,0,2,9
1564164023064800,-33,24,8,-21,-27,-4,4,-11
1564164023064800,31,-7,11,40,27,0,-14,3
1564164023079292,29,8,-5,-16,-10,-7,5,15
1564164023079292,-31,11,4,-28,-18,-6,4,-4
1564164023081280,21,4,11,11,20,14,11,-11
1564164023081280,-24,-31,-18,-17,-8,-18,-23,10
1564164023101232,74,8,-5,13,-9,-7,-3,12
1564164023101232,-60,-4,10,8,14,8,-6,-22
1564164023109717,-7,18,3,6,0,3,17,12
1564164023109717,-37,4,8,-2,0,0,-16,-26
1564164023115709,-42,-33,-11,-17,1,-1,-7,-4
1564164023115709,60,23,2,3,-16,-10,-1,0
1564164023124690,2,-13,-6,14,26,16,33,32
1564164023124690,21,-1,-8,1,-10,1,3,-7
1564164023139661,-49,33,7,-46,-17,-12,-30,-19
1564164023139661,13,-11,-10,25,2,-5,17,3
1564164023141159,0,-37,13,42,21,0,-5,12
1564164023141159,2,14,-2,-4,-7,3,12,-2
1564164023162119,-12,-3,-7,-1,1,2,-6,-4
1564164023162119,-9,5,-5,-37,-12,-5,-20,-12
1564164023163617,41,23,7,16,-13,-7,-5,1
1564164023163617,-54,-38,-13,1,9,8,9,-16
1564164023175594,17,30,0,-4,-4,-3,-15,-3
1564164023175594,-9,-18,2,2,8,5,8,9
1564164023184578,0,-2,-4,-3,-4,-5,-7,-5
1564164023184578,28,5,-4,-22,-13,-2,-23,-5
1564164023199550,13,-19,-2,19,-1,-6,13,10
1564164023199550,-23,10,9,5,13,7,10,6
1564164023201048,-6,-11,-9,-12,-3,-2,-13,-2
1564164023201048,-13,14,3,-19,-20,-14,-18,-20
1564164023222008,-24,-8,3,23,15,11,21,12
1564164023222008,38,8,-7,7,15,5,-5,9
1564164023223506,25,-14,-12,-19,-7,-5,9,2
1564164023223506,-31,-1,10,14,3,-4,-9,-5
1564164023235983,-14,4,2,-5,0,-5,-5,-3
1564164023235983,-11,-6,0,-10,-8,-2,-1,-9
1564164023244467,-22,-2,-11,-6,-1,-1,-9,-6
1564164023244467,26,4,2,-3,-6,0,12,10
1564164023259439,-13,3,1,-1,-3,-5,-10,-8
1564164023259439,-13,-4,-1,6,0,-6,-10,-4
1564164023260937,-11,-5,-4,-9,-6,4,2,-10
1564164023260937,11,-3,1,5,5,-6,13,12
1564164023281898,56,13,1,-11,-3,1,-4,10
1564164023281898,-82,-13,-7,-6,2,0,-1,-26
1564164023283395,16,-11,-6,-9,-10,-5,-6,2
1564164023283395,3,-5,2,17,7,7,8,3
1564164023295376,-4,5,-4,-11,1,-4,-9,-8
1564164023295376,4,-5,0,-5,-7,-3,-14,-2
1564164023304855,-19,5,3,-3,-4,1,14,-8
1564164023304855,-8,-13,-18,6,-2,3,20,16
1564164023319327,-26,-12,-3,-9,-2,5,3,-22
1564164023319327,0,-2,0,-2,-4,-3,-13,-2
1564164023321325,-12,-6,1,-5,-4,-8,-23,-16
1564164023321325,-7,7,6,9,2,-2,5,5
1564164023343284,52,8,13,19,1,8,11,21
1564164023343284,-27,1,-11,1,17,6,15,-3
1564164023344781,29,4,-1,-9,-8,-8,-8,7
1564164023344781,-14,14,5,-2,-2,-2,-9,-10
1564164023355760,-40,-6,4,-7,-14,-9,-14,-10
1564164023355760,19,8,5,14,16,9,16,12
1564164023364744,-7,-7,-5,1,1,2,1,5
1564164023364744,9,4,3,-12,-3,-2,-9,-7
1564164023379715,-19,-2,-8,4,-8,-9,-10,-15
1564164023379715,42,-1,0,-25,-18,-7,-4,10
1564164023381213,-15,3,4,28,17,1,5,6
1564164023381213,-10,-6,-2,-7,1,4,10,-4
1564164023402173,6,4,-2,-1,9,3,1,1
1564164023402173,2,-7,-2,-10,-10,-2,-3,3
1564164023403670,-15,8,-1,-10,-11,-8,-10,-9
1564164023403670,13,-5,0,11,1,-4,-11,-4
1564164023416148,-7,2,8,6,3,-2,-11,-6
1564164023416148,-19,-5,-3,0,1,0,9,0
1564164023424632,18,15,2,-5,-4,2,5,8
1564164023424632,41,-23,-5,5,-1,0,-3,1
1564164023439604,-12,9,-8,-5,-1,-3,10,-3
1564164023439604,-41,3,2,-8,-16,-13,-16,-2
1564164023441101,-13,0,5,12,2,3,-2,-5
1564164023441101,30,5,-2,6,17,10,7,14
1564164023462561,-54,-16,-2,-10,-7,4,4,-14
1564164023462561,53,2,-1,1,0,0,2,9
1564164023464059,-8,18,6,-3,0,-5,-4,-2
1564164023464059,-18,-16,-3,3,-4,-4,-9,-7
1564164023484521,8,-1,-4,-23,3,4,3,4
1564164023484521,35,10,3,23,-4,2,6,4
1564164023486019,-5,-19,-8,-10,0,-3,1,-4
1564164023486019,10,16,2,-2,-1,-5,-10,-1
1564164023499492,5,-6,-6,-19,-7,-6,6,-1
1564164023499492,43,2,3,6,2,6,-2,18
1564164023500990,-17,-11,-5,-1,4,0,3,0
1564164023500990,-17,-1,-9,0,-3,-4,-8,-5
1564164023521951,-22,-1,-3,-7,-6,0,3,-3
1564164023521951,3,-10,-1,4,-3,-1,-4,-13
1564164023523449,35,9,-2,6,2,-1,-3,17
1564164023523449,-37,0,4,-22,-17,-6,-1,-10
1564164023544411,27,9,-11,22,21,2,-22,0
1564164023544411,-27,-21,1,-4,-2,-3,20,-1
1564164023545907,-37,-1,6,-16,-12,-1,-3,-16
1564164023545907,48,-3,-6,8,-1,-2,-2,9
1564164023559383,43,-3,-7,6,6,3,1,7
1564164023559383,-41,13,0,-7,-5,0,-17,-11
1564164023560879,2,-3,2,1,-1,-1,3,1
1564164023560879,-41,3,0,-16,-7,-2,-1,-4
1564164023581840,-1,-1,3,5,3,3,1,0
1564164023581840,16,-1,0,18,9,0,6,0
1564164023583338,27,14,-3,-17,-9,-1,6,14
1564164023583338,-27,-19,-4,16,8,4,3,-11
1564164023604301,1,5,5,0,-7,-7,-4,2
1564164023604301,3,-10,2,5,7,-1,-12,-5
1564164023606296,-14,3,-1,6,1,0,4,-3
1564164023606296,-26,3,10,6,7,3,-3,-5
1564164023620268,12,-3,-2,-23,-6,-6,-11,2
1564164023620268,-10,10,6,5,-10,-6,5,-5
1564164023625759,-22,4,-3,11,8,-3,-16,1
1564164023625759,47,-1,0,-9,10,10,24,16
1564164023642229,-11,1,2,4,-10,-3,0,-9
1564164023642229,17,9,0,-5,4,-1,-1,11
1564164023643726,-24,-26,-7,4,-2,-2,-3,-14
1564164023643726,3,10,0,0,-5,-4,-7,-3
1564164023664685,5,2,4,5,3,4,-2,1
1564164023664685,-40,-5,4,-5,-6,-1,-15,-10
1564164023670673,78,1,-14,-22,0,5,26,24
1564164023670673,19,13,-3,5,-4,-8,-11,-2
1564164023678660,-57,-36,-6,9,1,-2,-1,-14
1564164023678660,22,-3,-4,-8,-5,-2,6,8
1564164023685647,3,16,9,13,4,-5,-18,-8
1564164023685647,-7,-1,2,-23,-6,0,8,-5
1564164023702615,5,-10,0,27,-5,-14,-14,6
1564164023702615,-17,9,-16,-21,2,-1,-6,-16
1564164023704112,-6,-24,0,-3,-4,2,2,-1
1564164023704112,0,-10,-7,5,4,0,-5,-4
1564164023724575,4,20,12,8,8,4,6,10
1564164023724575,-16,6,-4,-23,-8,-1,2,-5
1564164023726072,10,-2,2,22,6,2,2,4
1564164023726072,-7,-5,-1,-2,-4,-8,-13,2
1564164023739047,6,0,-10,-33,-8,3,15,3
1564164023739047,37,-6,-7,16,5,1,1,11
1564164023745535,-44,-4,-3,-10,-7,0,-6,-23
1564164023745535,-7,9,12,10,0,2,-4,2
1564164023762008,9,-2,4,17,7,1,-4,9
1564164023762008,31,-10,-9,-13,-8,-4,9,12
1564164023763505,-15,-9,-9,-14,-5,1,-2,-5
1564164023763505,-21,6,1,20,7,-4,-21,-16
1564164023791949,-7,0,-3,-14,-8,-2,14,-3
1564164023791949,2,18,12,9,3,0,-13,-5
1564164023793447,6,-5,1,12,6,2,9,8
1564164023793447,-12,-12,-11,-16,-6,-1,-2,-2
1564164023798937,14,-5,0,-10,-1,2,4,7
1564164023798937,-12,6,5,18,1,-1,-7,-7
1564164023805427,6,-4,-9,-12,-4,3,5,-1
1564164023805427,-12,7,10,-1,-11,-9,-15,-5
1564164023822392,-8,-5,-2,15,20,9,25,5
1564164023822392,-1,-17,-8,-8,0,2,14,4
1564164023823891,-33,7,6,12,1,-2,-5,-10
1564164023823891,53,3,-4,-11,-4,-2,-1,10
1564164023844351,-20,0,7,-3,-15,-5,-12,-14
1564164023844351,-11,-5,-13,-4,8,4,5,-5
1564164023845850,-6,0,2,4,6,4,8,8
1564164023845850,-50,-9,-1,-19,-11,-6,-5,-15
1564164023858825,42,7,-1,19,2,-3,7,17
1564164023858825,-6,-15,-3,-10,-4,-2,5,2
1564164023873298,5,5,10,10,3,1,-1,-3
1564164023873298,5,11,-2,-2,0,-1,1,2
1564164023881782,8,4,-1,-9,-1,-3,-7,-1
1564164023881782,-3,-5,0,-5,-2,1,-7,-5
1564164023883779,-5,0,-6,-12,-9,-6,-2,1
1564164023883779,24,-6,7,13,12,2,3,12
1564164023904241,-16,13,-5,-8,-4,-1,1,-12
1564164023904241,7,11,12,4,-2,3,6,3
1564164023906238,4,-10,-3,-1,-6,-4,-12,-7
1564164023906238,-5,-5,-8,-1,2,4,9,5
1564164023918717,11,-10,-4,2,1,-1,-12,3
1564164023918717,-43,3,0,-10,-10,-11,-27,-18
1564164023925700,33,1,2,-3,-13,0,20,9
1564164023925700,0,-20,-19,3,23,7,14,14
1564164023941671,-26,3,4,16,10,5,0,-7
1564164023941671,35,9,1,-13,-5,-1,-6,6
1564164023943673,-8,5,0,2,-5,-11,-16,-9
1564164023943673,12,-6,1,5,-4,-1,3,-2
1564164023964645,-3,5,-4,-10,-5,-2,-3,-7
1564164023964645,-12,-1,-2,3,0,-2,-1,-7
1564164023966126,10,-7,-1,-3,0,-1,-2,2
1564164023966126,-1,10,3,-5,-5,0,3,0
1564164023979620,-14,-9,-4,-4,-1,-2,-4,-5
1564164023979620,0,-4,4,7,0,-4,-1,3
1564164023987087,9,5,-7,-5,2,5,5,6
1564164023987087,-12,-11,-6,-4,-7,-7,-2,-5
1564164024002059,6,3,-2,-6,-7,-7,-3,1
1564164024002059,-2,-6,-3,0,-3,-6,-4,-6
1564164024003556,6,1,7,2,10,13,8,12
1564164024003556,-11,0,-2,-3,-5,-2,-14,-14
1564164024024517,3,1,2,5,16,49,24,6
1564164024024517,-1,-8,-4,1,-2,1,6,3
1564164024026015,-5,6,5,0,-2,-5,-10,-4
1564164024026015,2,8,12,2,-6,-6,1,4
1564164024037997,5,-3,-4,-8,-10,-13,-8,-4
1564164024037997,-14,-11,-4,5,2,3,6,1
1564164024046976,-2,-6,-16,-7,-2,-2,3,2
1564164024046976,-4,-2,7,-5,-8,-6,-4,-15
1564164024069453,-5,4,15,2,-7,-19,-11,-12
1564164024069453,20,5,-10,-1,5,15,17,4
1564164024070931,-3,-5,-10,-5,-7,-11,-16,-6
1564164024070931,11,10,9,4,4,3,3,11
1564164024084407,-5,-10,-12,-6,0,5,18,3
1564164024084407,-10,-2,7,1,-1,-5,-21,-1
1564164024085903,7,4,-1,-4,-3,9,3,2
1564164024085903,-4,-5,-5,5,4,3,0,3
1564164024097881,8,2,-4,0,-2,-7,-7,-4
1564164024097881,-2,-2,2,1,-2,-6,3,0
1564164024107363,-2,-12,-12,-7,-6,-7,-5,-10
1564164024107363,-18,-3,0,-2,-1,0,-4,-5
1564164024121838,15,-1,-3,-5,2,-5,-9,3
1564164024121838,-20,8,4,1,-7,0,-1,-6
1564164024123833,2,-7,5,9,10,1,1,1
1564164024123833,-5,-6,0,3,-2,0,2,-7
1564164024144297,3,14,-2,-12,-5,-6,-5,4
1564164024144297,-3,-5,-8,4,-6,-5,-4,-2
1564164024145792,4,3,6,7,4,2,1,-2
1564164024145792,2,2,-3,2,2,0,5,1
1564164024158269,-8,-8,0,5,2,-1,-2,1
1564164024158269,-5,-2,-1,-11,0,-2,-4,-4
1564164024167252,-3,3,3,-6,-7,-5,-5,0
1564164024167252,25,2,-11,12,9,5,4,6
1564164024181725,-21,-2,1,-1,-4,-3,-8,-4
1564164024181725,9,-3,-7,2,0,1,0,2
1564164024183721,-8,-4,19,2,2,1,1,-3
1564164024183721,-6,3,4,-8,-6,-2,-2,-4
1564164024204184,53,-5,-26,-9,-2,-6,-3,10
1564164024204184,-71,-12,3,8,1,2,5,-25
1564164024206180,2,0,-8,1,6,1,-1,0
1564164024206180,-10,-4,-1,-4,-7,0,-3,-5
1564164024218157,6,6,7,7,0,2,3,2
1564164024218157,16,-4,1,-5,0,-2,-2,3
1564164024227140,5,4,-1,-2,-2,-5,-1,3
1564164024227140,-6,-1,2,-1,2,2,6,2
1564164024242612,-8,-5,-1,0,5,0,-3,-4
1564164024242612,15,1,10,2,-2,-9,-1,8
1564164024248102,-7,2,-4,5,-1,9,5,2
1564164024248102,9,-9,-14,-11,-3,-6,-14,15
1564164024264575,-2,-2,5,-3,-8,-6,4,3
1564164024264575,6,0,2,-3,1,8,5,5
1564164024266068,2,5,-14,-1,2,5,-2,-9
1564164024266068,-3,-9,7,1,-2,3,10,0
1564164024278050,-14,-1,4,-2,-7,-6,-9,-8
1564164024278050,14,4,1,-3,-1,-9,-3,2
1564164024287029,-9,-6,-11,-11,-9,-16,-6,-4
1564164024287029,-11,-7,-19,-5,-2,4,-3,-21
1564164024302005,-6,6,15,4,-3,-7,-2,-2
1564164024302005,0,1,8,5,8,2,0,-3
1564164024303499,0,-2,15,0,2,1,-6,-2
1564164024303499,3,2,-5,-1,1,-6,-8,1
1564164024324460,-12,0,-19,-11,-4,0,0,-5
1564164024324460,9,3,-27,9,9,9,4,-3
1564164024325957,0,10,40,9,2,-2,-3,2
1564164024325957,-9,-6,-3,-10,-10,-3,-5,-3
1564164024337934,4,-4,14,10,-5,2,5,7
1564164024337934,5,-1,-14,-16,-3,2,-4,2
1564164024347416,-3,7,7,10,3,-8,-2,-1
1564164024347416,5,3,-2,-9,-1,4,5,4
1564164024361889,-4,-1,-7,-2,5,2,-4,-10
1564164024361889,14,7,0,6,6,0,2,5
1564164024363387,-13,-24,-38,-15,-6,-1,1,-11
1564164024363387,0,7,7,7,1,0,8,3
1564164024384349,-2,-6,0,-5,-6,0,-1,0
1564164024384349,6,2,21,3,-3,-2,-1,2
1564164024385846,7,1,-1,-1,-4,-7,-1,6
1564164024385846,3,-7,1,0,-7,-4,-8,-10
1564164024398323,0,-4,-6,1,4,5,5,2
1564164024398323,-4,-2,-8,-15,-12,-8,-4,-7
1564164024407306,-4,7,5,9,4,3,3,0
1564164024407306,4,13,16,20,8,3,4,4
1564164024421779,-1,4,7,0,2,2,0,0
1564164024421779,-4,-14,-23,-18,-9,-2,-4,-2
1564164024423277,0,-13,-20,-7,-6,-2,-3,-3
1564164024423277,0,0,1,2,4,1,-1,-1
1564164024444237,-6,6,28,13,1,-1,-2,-4
1564164024444237,11,18,18,2,-4,-1,-3,5
1564164024446234,0,-1,-14,-6,-6,0,-3,-3
1564164024446234,-5,-16,-2,0,-4,-1,0,0
1564164024466734,-3,4,-1,-4,0,3,4,-1
1564164024466734,-1,-2,-9,-2,0,4,12,14
1564164024468691,-9,-1,35,6,1,-1,-6,-14
1564164024468691,2,-8,-22,-6,-1,-3,-1,3
1564164024482171,4,-5,-22,-7,-1,-1,-3,5
1564164024482171,0,0,10,0,-3,-11,-5,1
1564164024483667,2,0,-5,1,5,9,4,-3
1564164024483667,-4,5,20,7,4,1,3,-1
1564164024504646,15,6,-32,-16,-4,-8,0,1
1564164024504646,-6,-7,17,3,1,4,0,-2
1564164024506122,-5,-12,-8,3,2,2,3,0
1564164024506122,-6,5,-10,-4,0,-3,-6,-11
1564164024527146,-1,8,-2,-7,-5,-3,-2,-1
1564164024527146,-1,-18,-20,4,4,1,-6,-2
1564164024528584,-4,-1,33,8,-7,-5,-4,-2
1564164024528584,10,15,-10,-10,0,2,8,8
1564164024542094,-4,-9,-1,-7,-2,1,2,1
1564164024542094,-10,-17,-27,-8,-6,2,-15,-12
1564164024543552,-1,-9,-25,-9,-1,7,3,-5
1564164024543552,1,14,6,-10,-9,-14,-3,6
1564164024564014,1,27,24,18,9,13,1,-8
1564164024564014,-13,-30,-12,-4,-1,4,3,0
1564164024570539,4,-13,-25,4,3,-11,-6,0
1564164024570539,5,20,41,0,-3,-1,-2,11
1564164024587012,-28,-40,-33,7,-4,-8,-3,-10
1564164024587012,6,32,68,18,5,1,-8,-12
1564164024588473,-10,-13,-52,-34,-18,-13,-5,0
1564164024588473,-3,-14,-16,-8,-3,5,8,0
1564164024600482,3,6,37,8,4,-2,-3,3
1564164024600482,6,-7,-27,0,5,6,9,9
1564164024608970,-3,17,18,14,4,-10,-1,1
1564164024608970,-1,6,19,16,4,3,-2,-7
1564164024625901,-11,-22,-10,-3,3,7,-3,-6
1564164024625901,5,15,3,9,4,-6,0,2
1564164024626408,12,18,-23,-30,-9,2,3,8
1564164024626408,-15,-43,-24,-1,-8,-19,-9,-17
1564164024646363,13,12,-2,4,10,16,8,1
1564164024646363,-6,-5,-6,-22,-15,-10,1,-5
1564164024646863,15,30,28,16,8,-4,2,6
1564164024646863,-37,-59,-38,-20,-17,5,-17,-17
1564164024661336,10,4,22,5,1,12,14,13
1564164024661336,-12,2,-20,-1,5,-2,-3,-3
1564164024662334,3,5,31,4,2,13,5,9
1564164024662334,13,1,10,11,-2,-8,-4,3
1564164024684300,-1,-1,-29,-15,-8,-15,-15,-24
1564164024684300,7,16,3,-13,-10,-5,5,11
1564164024684793,-7,-20,-12,1,-3,-6,-6,-11
1564164024684793,7,2,-7,1,-1,-1,4,8
1564164024706291,-6,-7,-4,-4,-2,-7,-2,2
1564164024706291,9,10,16,16,4,3,1,1
1564164024707249,0,6,-21,-14,1,2,3,2
1564164024707249,-6,-16,12,3,-1,-5,4,1
1564164024721723,-4,14,15,8,3,10,-3,-12
1564164024721723,0,-14,-13,-20,-17,-13,-4,9
1564164024728710,-8,8,17,3,1,10,6,2
1564164024728710,8,0,-17,-2,5,3,-7,-11
1564164024744191,-8,15,25,12,-1,-19,-17,-5
1564164024744191,-11,-33,-1,-1,1,7,5,-7
1564164024744680,2,-1,-11,2,-1,-2,-1,2
1564164024744680,17,37,46,21,10,6,6,7
1564164024766200,0,-7,-21,-11,-6,-9,-1,2
1564164024766200,-2,3,2,3,3,0,-4,-3
1564164024774126,7,-10,-22,-4,1,3,-3,2
1564164024774126,-1,3,27,-4,-3,-3,2,-5
1564164024781614,6,16,13,-4,-5,-6,-10,5
1564164024781614,-9,-25,-23,-6,-8,1,-6,-1
1564164024782119,-1,15,58,15,4,3,7,-5
1564164024782119,4,-1,-48,-9,4,12,0,10
1564164024804070,-11,-32,-7,-17,-7,-3,-6,-14
1564164024804070,7,31,13,12,5,-4,-1,4
1564164024804569,2,-10,-15,-14,-7,-7,-11,0
1564164024804569,-5,11,8,16,3,-1,-4,-6
1564164024826531,4,-10,2,-6,-2,-5,2,9
1564164024826531,-10,-15,-4,-1,4,4,1,-11
1564164024827036,8,13,14,12,5,-2,3,7
1564164024827036,-13,3,-27,-22,-8,-4,-5,-20
1564164024849517,3,-3,-26,-3,-4,3,6,14
1564164024849517,-7,-14,1,-1,-9,-5,-3,-6
1564164024850484,-7,-6,-4,2,0,4,4,5
1564164024850484,11,35,32,10,7,6,8,2
1564164024863994,-3,-28,-36,-14,-3,-4,1,-5
1564164024863994,-4,38,22,5,5,3,2,-1
1564164024864491,-1,-27,13,2,-2,-1,-5,5
1564164024864491,-7,-10,-22,3,5,-4,2,-3
1564164024886418,20,24,-13,1,10,17,6,25
1564164024886418,12,18,21,10,1,-10,-8,3
1564164024886917,-15,-18,-13,-7,2,9,1,-8
1564164024886917,7,15,26,-1,-2,7,4,1
1564164024902388,6,-3,2,17,-1,-3,0,3
1564164024902388,1,6,-19,2,4,-2,-4,-3
1564164024908881,-2,-6,-14,-6,-6,-7,-2,-7
1564164024908881,-5,-28,7,4,3,0,4,5
1564164024924384,4,15,-18,-6,-5,-9,-1,-1
1564164024924384,3,10,27,5,-2,3,-1,-1
1564164024931394,-1,2,-1,-6,-5,-6,-2,-5
1564164024931394,2,-5,-9,0,7,6,5,8
1564164024946304,-6,-10,-24,-11,-7,1,3,2
1564164024946304,13,10,43,11,3,0,5,-2
1564164024947304,-3,-4,-11,-8,-8,-4,-2,-3
1564164024947304,-1,-5,-1,6,0,-3,2,7
1564164024961283,-4,9,10,14,10,1,-3,-13
1564164024961283,-15,-21,-19,-20,-8,-8,-9,-8
1564164024962276,6,11,-1,7,1,3,-2,9
1564164024962276,-5,-5,1,-7,-5,-11,-11,1
1564164024983796,1,-3,12,4,-2,2,11,4
1564164024983796,-3,-1,3,7,3,2,8,1
1564164024984742,-2,-3,8,-1,-3,-4,-3,-13
1564164024984742,-2,-5,-37,-14,3,5,-1,-1
1564164025006231,5,13,40,8,-1,-4,-5,1
1564164025006231,-8,-13,-41,-18,-13,-12,-15,-12
1564164025007192,0,-3,10,3,3,11,5,0
1564164025007192,-10,-13,-3,5,-1,0,-1,-2
1564164025020673,3,2,12,-5,-8,-8,-6,2
1564164025020673,1,6,8,4,4,3,6,5
1564164025029152,1,9,-16,-5,7,2,5,0
1564164025029152,18,12,-1,-11,-10,-8,-4,6
1564164025043661,-7,6,-5,1,1,4,0,-4
1564164025043661,4,-9,6,3,-2,-1,0,4
1564164025051610,-4,-16,-24,-2,-1,0,3,0
1564164025051610,-1,8,16,7,7,6,2,-12
1564164025067618,-3,-3,-13,-5,-2,-3,-4,-3
1564164025067618,6,4,13,10,5,3,0,1
1564164025068579,-1,-1,2,-9,-9,-6,-7,-4
1564164025068579,-5,-5,-12,2,0,-3,-5,9
1564164025080558,-6,-10,-4,-8,-1,-4,-3,5
1564164025080558,3,2,-9,-10,-5,0,-5,-9
1564164025089041,2,1,2,3,4,-5,0,1
1564164025089041,-4,0,-10,-4,-3,4,3,-8
1564164025104012,-1,-1,13,12,6,-2,-3,-4
1564164025104012,-6,-7,-14,-8,-3,5,8,8
1564164025104510,-1,-3,0,-4,-8,-5,-4,-6
1564164025104510,4,3,3,4,-3,0,-3,-5
1564164025126968,4,8,10,-1,0,-3,-4,-1
1564164025126968,-1,-8,-27,-3,6,10,8,1
1564164025127473,-5,8,1,-4,-4,-3,-6,-4
1564164025127473,-4,-15,-4,-4,-2,-2,2,3
1564164025140505,-3,0,0,2,2,0,-1,-5
1564164025140505,2,4,3,-1,-4,-8,-5,-2
1564164025148971,-3,16,1,-8,2,4,4,-2
1564164025148971,11,-12,-8,-5,-1,-1,-4,-2
1564164025163937,-3,-6,11,2,-1,1,2,-5
1564164025163937,8,16,-2,12,6,1,3,6
1564164025164400,-7,-14,18,-5,-4,-3,-7,-3
1564164025164400,1,6,-9,-7,-6,-6,-4,-1
1564164025186361,-8,-10,-10,0,-2,-1,1,-4
1564164025186361,-5,-3,18,2,1,-2,1,1
1564164025186857,-1,-4,6,2,-5,-4,-5,-1
1564164025186857,-4,8,1,-4,-1,-5,-6,-3
1564164025200832,4,-11,-31,-8,-1,9,11,3
1564164025200832,3,24,47,5,-4,-2,-1,-2
1564164025208840,-2,-16,-24,-1,5,-3,-4,1
1564164025208840,-2,-2,-2,2,-2,4,4,-1
1564164025223831,6,3,2,4,2,2,-1,-3
1564164025223831,0,-22,-21,-8,-6,-2,-3,12
1564164025224790,2,13,8,15,-3,-8,-2,-9
1564164025224790,-10,-2,1,-22,-5,8,4,0
1564164025246309,-9,-16,-8,-3,-4,-4,-2,1
1564164025246309,-1,10,2,1,4,2,-4,-12
1564164025247247,-2,1,7,6,7,1,0,1
1564164025247247,-4,3,-11,3,0,-1,3,2
1564164025260792,-2,-4,2,-9,-8,-2,-3,-2
1564164025260792,-12,-21,-17,-2,-1,0,-1,-5
1564164025268706,5,13,15,5,3,4,3,5
1564164025268706,1,0,2,-5,1,-4,-3,-3
1564164025283739,4,10,6,9,0,-2,-2,3
1564164025283739,3,-13,-11,-10,-2,-5,-4,-3
1564164025284698,-2,12,-9,-1,4,7,6,5
1564164025284698,-9,-31,9,3,-10,-6,-7,-10
1564164025306135,1,1,-7,-7,-4,-2,-2,1
1564164025306135,-2,7,-3,3,0,1,2,-2
1564164025307135,13,-8,-2,9,-3,3,4,7
1564164025307135,-10,0,-14,-20,-4,-1,-1,-7
1564164025320613,-2,-17,7,-2,-1,1,-2,6
1564164025320613,3,5,-2,-3,3,1,1,-1
1564164025328593,-4,-8,-14,-3,-1,-7,-11,-17
1564164025328593,5,21,7,3,-3,-1,-2,6
1564164025344065,-6,-5,-6,-3,2,2,-2,-7
1564164025344065,4,2,-3,-4,-2,0,1,4
1564164025344564,-6,-7,-7,-2,-2,-1,0,-4
1564164025344564,5,11,11,7,-1,-4,1,-2
1564164025367021,-4,-5,-2,0,3,-2,3,-2
1564164025367021,-6,-30,-15,-4,-5,-1,1,0
1564164025367521,8,20,-4,-6,-4,-2,1,4
1564164025367521,-1,15,22,11,6,2,2,1
1564164025389520,-2,2,16,2,3,1,-2,2
1564164025389520,0,0,-13,0,3,7,7,3
1564164025390482,2,-14,3,-9,-6,-8,-10,-4
1564164025390482,-2,12,-1,3,0,-4,-3,2
1564164025403978,-3,-6,7,2,4,3,9,-6
1564164025403978,-7,1,-13,-8,-6,-4,-1,-7
1564164025404453,-1,-5,4,3,-3,1,0,3
1564164025404453,13,10,-11,-4,-1,0,1,6
1564164025426955,-6,-4,3,-9,-7,-5,-6,-6
1564164025426955,-5,5,19,6,5,3,-3,-4
1564164025427912,4,0,-23,-4,-2,3,2,1
1564164025427912,4,-3,9,3,0,0,-1,-3
1564164025456917,-5,-12,-7,-2,-1,-5,-2,0
1564164025456917,5,1,3,3,-5,-1,0,9
1564164025457871,-13,11,6,-17,-5,-6,-4,-9
1564164025457871,-1,-18,-14,0,5,1,-1,-4
1564164025463844,8,13,3,12,1,3,2,4
1564164025463844,0,1,4,-4,-1,-4,-8,-6
1564164025464374,-8,-9,-6,4,1,1,5,1
1564164025464374,-4,-6,-11,-11,-4,-1,1,1
1564164025486802,-3,-7,-6,0,-4,-3,-3,1
1564164025486802,-10,-11,5,-3,-6,-7,-5,-9
1564164025487800,6,-2,1,17,-3,1,-6,6
1564164025487800,-7,1,-5,-16,2,1,3,0
1564164025510293,-1,8,13,6,4,1,-1,-1
1564164025510293,4,-1,-23,-2,2,1,-1,2
1564164025510768,2,5,-4,0,6,3,1,-3
1564164025510768,4,-3,26,9,-6,-6,-4,-3
1564164025523732,-1,5,-8,-14,-9,-2,-4,-8
1564164025523732,-6,-7,-1,-1,-6,-2,-1,-1
1564164025524730,1,0,6,-1,2,-1,1,-1
1564164025524730,4,6,-3,6,8,6,1,1
1564164025547188,0,13,4,-1,-5,-3,1,1
1564164025547188,-1,0,-4,-2,-4,-10,-7,0
1564164025547687,2,8,-1,4,3,7,11,7
1564164025547687,-6,-28,-2,8,3,-1,-6,1
1564164025569648,2,10,-7,0,0,2,-1,-1
1564164025569648,-4,-11,-6,5,3,1,2,-3
1564164025570146,-6,0,8,-2,-1,-4,-2,-5
1564164025570146,4,-5,-3,-6,-6,-5,-4,-3
1564164025583619,-1,-3,-2,1,1,7,3,-1
1564164025583619,-3,0,24,2,2,0,-2,-4
1564164025584623,8,0,-30,-15,-5,-4,1,3
1564164025584623,-4,7,10,9,1,0,4,3
1564164025607087,5,2,-22,-10,0,-5,-6,6
1564164025607087,0,-6,15,1,-2,0,-1,-3
1564164025607575,-2,7,13,3,-2,0,-2,-1
1564164025607575,0,-9,-22,-13,-11,-3,-2,-2
1564164025629598,6,13,13,13,-1,0,0,-1
1564164025629598,-5,-27,-26,-18,-1,-1,-2,0
1564164025630043,-1,-4,3,4,3,-2,-2,-2
1564164025630043,-2,3,-3,4,4,1,0,2
1564164025644043,-7,-11,6,1,-3,-3,0,-6
1564164025644043,-6,-3,-7,-3,3,3,1,-1
1564164025644516,0,-10,-13,-2,-3,-3,-6,-2
1564164025644516,-7,-7,2,5,1,4,2,1
1564164025667005,1,25,21,14,3,-1,4,2
1564164025667005,15,19,-6,-13,-6,-3,-5,0
1564164025667965,-8,-36,-1,-5,-5,-5,-5,-1
1564164025667965,5,36,10,2,3,1,4,-1
1564164025689433,-6,-16,-11,-7,-5,-4,-2,1
1564164025689433,10,9,-3,2,0,1,0,3
1564164025690423,-8,-12,12,10,11,4,1,0
1564164025690423,-1,10,-1,0,1,-2,1,-1
1564164025703897,-3,-5,-4,-1,4,0,-3,-3
1564164025703897,-16,0,-1,-2,-3,-3,-1,-8
1564164025704895,-4,6,0,-6,-2,-4,-7,-4
1564164025704895,5,-2,5,-12,-7,2,16,4
1564164025734840,1,1,1,0,-1,-1,-12,-2
1564164025734840,-2,-10,-12,3,10,6,5,4
1564164025735340,10,20,19,-8,-3,1,-3,1
1564164025735340,-9,-12,-14,5,-4,-6,-7,-9
1564164025749348,-3,-1,-3,-23,-13,-6,1,-4
1564164025749348,-3,-1,9,16,-3,-2,-2,-1
1564164025750318,-3,13,-21,-1,6,3,5,4
1564164025750318,3,-6,27,8,4,1,-5,3
1564164025763827,-5,-32,-14,-4,-1,-2,-2,-5
1564164025763827,7,27,5,-4,-9,-7,-3,2
1564164025764786,4,2,-6,-23,-11,-4,-3,1
1564164025764786,-3,-7,-2,5,9,5,-4,3
1564164025794729,-3,-4,-7,1,4,0,-3,-1
1564164025794729,-12,-5,-5,0,0,3,2,-7
1564164025795228,-1,-14,14,14,-2,1,8,1
1564164025795228,14,13,-6,2,-8,-4,0,1
1564164025808738,-8,-2,-4,-4,14,0,-12,-5
1564164025808738,5,8,1,1,-2,0,12,8
1564164025816691,12,9,-4,-9,-6,-4,0,5
1564164025816691,15,-3,-4,-19,-8,-1,-13,0
1564164025823712,-15,-11,0,32,-4,-3,-2,-8
1564164025823712,-10,4,0,0,18,7,-2,-6
1564164025824673,-32,-17,13,12,9,-1,-11,-21
1564164025824673,12,13,-12,-10,-1,0,11,7
1564164025847166,31,3,3,-18,-16,-1,3,17
1564164025847166,3,8,3,8,-4,-3,-2,0
1564164025847640,5,-11,-14,3,-4,-3,1,-5
1564164025847640,-24,-8,4,2,0,-3,-5,-10
1564164025869596,-9,-2,-9,-16,5,0,1,-2
1564164025869596,-13,-15,-8,-1,-7,-3,-4,0
1564164025870097,15,7,0,-13,-14,-1,8,6
1564164025870097,-9,4,7,44,15,1,-5,-1
1564164025884101,22,-1,-10,-9,1,-2,2,7
1564164025884101,21,13,10,8,-1,-4,12,4
1564164025885071,-30,1,0,-9,0,3,-6,-6
1564164025885071,1,-19,-4,-17,-12,-7,-9,-7
1564164025907021,-26,4,6,24,5,1,4,-6
1564164025907021,-4,-3,0,-1,5,0,-14,-6
1564164025907521,12,-6,-16,-29,-10,-9,-3,-3
1564164025907521,2,7,4,9,8,1,5,-5
1564164025929482,16,8,4,0,-5,0,-5,4
1564164025929482,-13,0,0,4,3,6,17,7
1564164025930476,-7,-22,-6,0,-7,1,13,9
1564164025930476,-4,7,6,5,5,-6,-13,-3
1564164025943951,27,0,1,-11,-6,-2,-11,-2
1564164025943951,8,3,12,3,-2,-3,-9,-2
1564164025944450,2,11,6,12,0,2,2,0
1564164025944450,-27,-19,-30,-20,-3,0,-5,-5
1564164025966908,-14,0,8,8,-3,-6,4,-6
1564164025966908,13,0,19,-2,-3,7,3,1
1564164025967907,-6,-8,-1,6,2,-4,-18,-8
1564164025967907,59,22,16,4,-5,-2,5,19
1564164025989410,-40,-4,-10,-10,1,2,-3,-5
1564164025989410,-39,-21,-14,-2,-6,-5,-9,-20
1564164025990368,20,17,16,8,6,9,20,12
1564164025990368,-15,-11,-9,15,12,6,5,4
1564164026011865,32,9,-4,-4,2,0,10,11
1564164026011865,8,1,-6,2,0,-6,-14,-1
1564164026012822,-11,-5,6,17,2,-2,0,-9
1564164026012822,-2,-1,-15,-29,-15,-5,-7,-8
1564164026026837,-17,-3,-3,-3,-2,-4,9,-5
1564164026026837,-2,-6,-4,-6,-5,0,2,5
1564164026028796,23,4,-9,-5,2,-1,0,11
1564164026028796,-33,-11,5,3,-1,2,3,-9
1564164026049763,11,-3,-1,4,5,4,0,1
1564164026049763,-10,-11,-21,-9,-4,-5,-10,-3
1564164026051253,1,-8,-4,3,-3,-8,-5,-1
1564164026051253,9,0,-2,-18,-3,-2,-6,-3
1564164026063263,4,3,5,-5,-14,0,6,2
1564164026063263,7,18,6,-4,4,1,0,1
1564164026072214,30,9,-12,7,10,6,5,15
1564164026072214,0,-16,-4,-5,-6,-5,-1,-1
1564164026087222,0,-1,6,8,2,-2,-2,-10
1564164026087222,-14,12,0,-8,-7,-2,-5,2
1564164026088684,-46,-38,-5,10,4,-8,-18,-23
1564164026088684,3,-6,-3,2,-3,-2,5,5
1564164026109646,1,-5,0,-3,0,2,-1,7
1564164026109646,0,-5,-3,-6,-4,-3,7,2
1564164026111141,11,13,4,-9,0,7,7,4
1564164026111141,-14,-1,-3,3,-4,-3,-5,-4
1564164026123204,5,3,-4,-8,-3,-2,-8,-4
1564164026123204,23,-7,-5,7,0,1,4,9
1564164026132186,1,3,4,-10,-5,-6,-15,-7
1564164026132186,0,11,2,-4,0,2,14,4
1564164026147183,-25,2,0,-4,-3,1,4,2
1564164026147183,45,-7,-1,3,15,9,7,17
1564164026148656,-55,-6,-4,27,-5,-10,-12,-42
1564164026148656,6,-10,-10,-22,-2,6,14,6
1564164026169628,0,14,0,3,-8,-14,-21,-9
1564164026169628,23,4,9,-5,6,-3,-1,18
1564164026171136,57,7,-1,-24,-10,0,14,41
1564164026171136,-42,-7,-2,8,5,-7,-24,-25
1564164026183131,9,-6,2,8,-2,-1,3,-10
1564164026183131,0,5,-7,2,-8,-7,-5,-14
1564164026192074,-45,-5,3,1,7,7,12,-6
1564164026192074,5,-12,-10,-22,-11,-1,-9,-5
1564164026207086,-30,-4,-3,9,15,5,-5,-1
1564164026207086,34,-14,0,10,-8,-2,7,13
1564164026208546,9,12,7,11,13,0,-13,-20
1564164026208546,62,31,29,30,6,11,32,58
1564164026237028,-37,-6,-12,-38,-6,4,14,-3
1564164026237028,11,9,3,23,1,-3,-11,-13
1564164026238490,-7,-15,-11,-16,-6,-3,-3,-8
1564164026238490,6,7,-6,-13,-12,-1,-14,-11
1564164026253460,-15,-13,-1,-20,5,-4,-5,-11
1564164026253460,-53,-5,-2,1,-4,-6,-15,-24
1564164026254959,48,26,12,7,-1,4,11,29
1564164026254959,-3,-9,-4,20,14,7,7,12
1564164026266973,77,10,14,16,6,12,6,34
1564164026266973,11,11,-2,-19,7,7,4,-21
1564164026268440,-44,-8,-3,2,-1,-4,-2,-2
1564164026268440,-8,-7,-12,-8,-2,-6,-13,-26
1564164026289931,-16,-5,7,13,-8,-9,-13,-9
1564164026289931,-24,-10,0,-12,-1,2,-3,-2
1564164026291391,-10,10,-4,-9,-7,-4,3,14
1564164026291391,38,2,7,-23,-7,4,9,3
1564164026303376,53,-8,-6,5,-9,-9,-20,8
1564164026303376,-59,10,-6,20,7,7,3,-24
1564164026312351,-15,-25,-3,-3,-1,3,1,2
1564164026312351,-40,-27,-19,-18,-12,-17,-23,-24
1564164026327331,-117,-8,-6,-30,-6,-7,4,-22
1564164026327331,50,24,17,28,-1,2,2,-4
1564164026328820,61,1,4,5,6,6,0,22
1564164026328820,-67,-1,2,14,6,3,4,-6
1564164026349304,34,1,3,-5,-1,0,11,14
1564164026349304,-8,11,6,-8,-10,-9,-26,-8
1564164026351277,37,-8,-8,21,15,1,7,14
1564164026351277,-42,-2,-7,-35,-11,-5,-5,-38
1564164026372252,-18,-4,1,43,12,7,16,23
1564164026372252,-2,-26,-13,-31,-2,-1,13,15
1564164026373736,29,15,9,14,0,-1,-8,-12
1564164026373736,31,-5,5,11,0,-6,-14,5
1564164026387216,2,20,-13,-13,-12,-2,13,-11
1564164026387216,-104,-50,-5,9,-3,-4,-14,-25
1564164026388708,2,11,0,-50,-28,-12,-23,-12
1564164026388708,66,12,-8,34,25,14,38,35
1564164026409675,-21,-17,8,10,4,-4,-30,-18
1564164026409675,47,-5,-14,-20,-10,-7,-4,8
1564164026411200,-88,-31,-5,-12,-2,3,16,-17
1564164026411200,48,50,17,16,2,-4,-16,3
1564164026432165,65,-6,-4,-4,2,-2,4,4
1564164026432165,-35,19,8,8,11,5,9,17
1564164026433625,43,10,18,36,6,9,2,4
1564164026433625,-79,-14,-21,-13,4,-6,-13,-25
1564164026446616,20,13,7,0,2,4,0,12
1564164026446616,48,10,-7,-27,-9,-7,-2,11
1564164026453089,-30,-9,-6,-10,-14,-7,-7,-17
1564164026453089,15,4,8,25,5,4,27,26
1564164026469590,-45,-4,-1,-10,5,2,-15,-20
1564164026469590,51,-4,-8,-5,-6,-4,2,18
1564164026471057,-70,6,-5,-21,4,7,-5,-30
1564164026471057,-25,-19,15,20,-8,-13,-27,-15
1564164026492025,45,11,-3,7,1,5,34,28
1564164026492025,-10,-17,-8,-15,6,3,4,4
1564164026493514,4,-4,6,11,-4,-6,-11,-7
1564164026493514,-6,1,-12,-22,-7,-1,-11,-10
1564164026514483,-11,6,6,17,8,14,17,18
1564164026514483,3,9,5,1,2,-4,-8,-11
1564164026515974,33,-2,-10,3,-6,-13,-18,6
1564164026515974,-10,-17,-1,3,-1,2,0,6
1564164026529484,1,20,8,-6,-3,0,6,-11
1564164026529484,28,7,12,20,8,11,14,9
1564164026530947,-26,16,-1,-23,-3,-2,-14,2
1564164026530947,-37,-23,7,32,10,2,19,-3
1564164026551906,43,-5,-7,0,8,8,1,2
1564164026551906,-16,-2,-11,-7,-13,-14,-11,-9
1564164026553405,-32,-7,-1,-9,-5,0,13,-6
1564164026553405,-18,18,8,-10,-4,-6,-21,-12
1564164026566411,30,-9,-4,11,3,1,4,17
1564164026566411,-50,-16,-1,-12,-2,1,4,0
1564164026573373,-3,12,-7,-23,-2,-2,-8,-11
1564164026573373,7,3,10,39,12,8,13,11
1564164026589376,-64,-13,-8,-3,-2,0,-4,-24
1564164026589376,50,16,-7,-6,-11,-18,-27,3
1564164026590832,-45,-27,4,2,-8,-3,14,-9
1564164026590832,51,23,4,-3,12,5,2,12
1564164026611802,-58,-21,-9,-28,-19,-11,-14,-22
1564164026611802,12,-3,6,27,17,12,18,13
1564164026613800,-12,16,0,-10,-8,-5,-14,-17
1564164026613800,-44,-57,-23,-16,-6,-3,-6,-7
1564164026626305,47,3,2,5,-4,-4,-4,1
1564164026626305,-14,12,-1,-2,-1,3,2,-9
1564164026633309,22,8,-3,-24,0,-1,-7,19
1564164026633309,-26,-2,7,24,1,6,18,-12
1564164026649730,28,16,-2,-12,-1,-3,-14,4
1564164026649730,-4,-8,-1,3,-6,-4,-3,-14
1564164026651229,-51,-1,-4,19,6,10,47,23
1564164026651229,93,-17,-6,-26,-10,-6,-20,15
1564164026672208,-16,7,-3,-18,-15,-15,-19,-21
1564164026672208,20,23,17,18,15,12,11,9
1564164026673680,6,-8,-11,-7,-5,0,8,6
1564164026673680,11,13,6,-10,0,1,1,2
1564164026686194,-11,-3,0,23,2,-4,-2,0
1564164026686194,64,-4,6,7,-1,-3,-28,6
1564164026700668,-10,-23,-16,-7,7,-1,14,-11
1564164026700668,-21,18,8,4,-8,6,9,-8
1564164026709618,6,5,-2,-4,10,7,-1,3
1564164026709618,-6,-13,-10,-24,-4,1,8,10
1564164026711143,51,11,5,40,14,7,-7,8
1564164026711143,-21,-18,-8,-18,-12,-10,-12,-13
1564164026732086,15,7,-1,-1,-3,-6,6,-3
1564164026732086,-51,2,-1,-1,-1,-2,3,-10
1564164026734068,20,-12,-2,-7,-10,-7,-19,2
1564164026734068,8,34,6,-5,6,3,1,4
1564164026754529,-30,3,4,10,13,15,14,2
1564164026754529,-3,-10,0,2,0,-2,5,4
1564164026756027,-5,7,9,17,10,0,-14,-6
1564164026756027,44,-4,-11,-13,-8,-6,-4,10
1564164026769533,-7,-16,-2,-11,-7,-7,-19,-3
1564164026769533,-35,20,-1,-15,-11,-1,21,-11
1564164026771000,31,-3,5,16,13,10,2,8
1564164026771000,14,3,1,3,1,1,1,6
1564164026792458,-11,-9,-10,-2,-5,-8,0,1
1564164026792458,-17,8,4,-11,-5,-5,-9,-11
1564164026793957,-9,-24,3,5,-2,-3,-12,0
1564164026793957,2,-2,-16,-30,-2,-2,16,1
1564164026806438,20,-12,3,25,2,-2,-10,-2
1564164026806438,-21,3,-5,-1,-5,3,6,-7
1564164026813420,3,6,3,-3,-6,-6,0,-2
1564164026813420,3,2,3,-4,-4,0,-13,-10
1564164026829388,24,11,-1,-5,1,1,-2,11
1564164026829388,-41,-26,-6,9,6,0,15,-1
1564164026830888,32,31,7,3,2,-1,-13,-6
1564164026830888,-27,-28,-16,-19,-18,-10,4,-2
1564164026851848,-43,-5,1,-15,-10,-8,-8,-16
1564164026851848,51,5,2,34,24,6,-6,13
1564164026853347,-13,-7,-16,-13,-6,-2,4,2
1564164026853347,2,9,6,0,-3,1,1,2
1564164026865837,-30,18,4,-11,-2,-3,-3,-5
1564164026865837,22,-28,-14,0,-6,4,6,5
1564164026874809,4,-5,-1,10,2,-6,-8,-4
1564164026874809,-28,19,3,7,8,3,1,-8
1564164026889786,33,-6,2,-9,-5,0,7,21
1564164026889786,-5,14,-1,-14,-8,-8,-14,-17
1564164026891276,12,1,-1,-8,-8,0,1,8
1564164026891276,-74,-26,-2,5,6,-2,1,-8
1564164026912260,9,13,2,-3,-4,12,26,6
1564164026912260,-21,-4,-3,2,5,-6,-24,-12
1564164026913735,40,12,0,4,0,-2,15,6
1564164026913735,36,4,-2,-21,-4,-1,-6,13
1564164026925711,-31,-17,-1,27,3,-7,-13,-13
1564164026925711,19,-5,-5,-13,-3,5,15,14
1564164026934695,-49,3,-5,-15,-14,0,-10,-24
1564164026934695,40,0,3,14,1,1,5,18
1564164026948669,30,0,-1,6,10,1,1,4
1564164026948669,11,12,1,-6,-15,-7,-23,-3
1564164026957153,-32,-4,-2,12,16,-1,18,-3
1564164026957153,11,-2,-3,-5,-8,-1,-9,10
1564164026972125,-32,-35,2,0,0,2,2,-21
1564164026972125,-13,-7,-1,6,-6,-1,6,0
1564164026973627,31,12,2,-25,1,6,-2,7
1564164026973627,-6,-5,-14,14,-1,-6,10,-7
1564164026985601,-21,0,2,12,-2,-9,-11,-4
1564164026985601,-13,9,4,-20,2,-2,-2,-1
1564164026994582,29,7,9,-4,-4,7,15,21
1564164026994582,4,-16,-5,23,9,2,-7,-10
1564164027010076,16,5,-1,-20,-15,-4,-2,-4
1564164027010076,4,-9,2,12,15,-2,2,5
1564164027011572,9,6,0,11,0,-5,-13,-3
1564164027011572,8,18,6,-8,-6,-1,1,9
1564164027032074,-25,-11,1,-7,-5,-4,-7,-16
1564164027032074,2,-3,0,-1,-2,-1,9,-5
1564164027033512,51,2,-1,-19,-2,0,-3,19
1564164027033512,-7,-16,-2,17,5,3,10,-4
1564164027045509,6,5,-10,-10,2,4,1,9
1564164027045509,-6,8,5,-4,-6,-5,-12,-3
1564164027054471,-34,-12,3,13,8,-6,-18,-16
1564164027054471,28,10,4,-14,-7,0,21,13
1564164027069985,-20,0,7,7,1,3,6,-3
1564164027069985,-3,-7,-23,-9,-3,-3,-14,-10
1564164027071439,10,8,0,4,-5,2,10,-3
1564164027071439,-19,-7,-4,-12,-9,-13,-28,-9
1564164027091942,-1,4,1,2,0,2,10,-1
1564164027091942,30,-2,0,-20,-8,-4,7,12
1564164027093399,-39,-16,-9,16,11,3,-1,-7
1564164027093399,-26,-10,1,8,6,5,-2,-6
1564164027105489,6,-1,3,-9,-3,6,-3,-3
1564164027105489,42,8,-4,4,-2,-2,10,14
1564164027114437,-8,6,4,-2,0,0,12,14
1564164027114437,-8,-4,0,-8,-1,-2,-10,-9
1564164027129405,-3,-1,-4,-4,1,-5,-3,5
1564164027129405,-1,-12,3,3,-6,2,-8,-11
1564164027130903,14,18,-1,-5,-2,-2,8,8
1564164027130903,-16,-20,1,0,-5,2,11,-6
1564164027151863,25,8,-7,-10,1,0,-10,-1
1564164027151863,-28,11,3,-1,0,-2,-9,-8
1564164027153361,2,-23,-5,8,-3,-4,2,-4
1564164027153361,1,6,-3,-3,-4,-3,-10,-2
1564164027165338,-5,-2,0,6,2,-4,-2,-3
1564164027165338,-2,-5,-5,-2,3,6,6,2
1564164027174821,-10,-8,0,-1,0,4,3,-3
1564164027174821,5,15,5,-7,-5,-3,0,0
1564164027190830,-2,-3,0,8,7,-1,1,1
1564164027190830,-14,-12,-1,9,5,0,-1,-3
1564164027192292,-12,5,3,-4,-3,0,-9,-6
1564164027192292,-4,5,2,2,1,2,1,3
1564164027211793,15,7,1,1,0,-9,-2,7
1564164027211793,-17,-1,13,7,0,-5,-11,-12
1564164027213756,-3,-6,-11,-11,-5,2,-11,4
1564164027213756,8,9,-4,-5,-1,-1,11,0
1564164027225759,0,7,14,7,2,2,0,-1
1564164027225759,-6,-8,-11,-3,-7,-16,2,6
1564164027234716,-8,-8,-7,-8,-3,8,-6,-18
1564164027234716,-6,11,22,22,17,19,44,14
1564164027249718,1,-27,-57,-26,-26,-30,-34,-9
1564164027249718,-13,-7,0,-11,10,38,14,7
1564164027251186,13,8,9,9,6,3,12,3
1564164027251186,4,0,-2,2,6,0,-11,0
1564164027272677,-4,12,19,13,4,0,8,-12
1564164027272677,-1,-2,7,-3,-9,-18,-1,4
1564164027274144,-4,-8,-13,-9,-8,-8,-11,-8
1564164027274144,7,3,-2,-6,-6,-4,-11,-9
1564164027294634,7,21,10,6,2,-9,5,6
1564164027294634,-1,-9,-22,0,0,-7,-4,-5
1564164027296102,2,6,31,5,0,1,-8,4
1564164027296102,3,9,20,0,-10,-9,-11,6
1564164027309573,-1,-10,-29,-9,-1,-1,4,1
1564164027309573,-8,-6,4,-1,-1,17,-2,-2
1564164027317065,1,-1,0,9,9,15,25,8
1564164027317065,-4,-2,-4,-4,-4,-10,-16,-12
1564164027332065,9,7,4,-2,7,10,6,21
1564164027332065,-1,6,2,16,-4,-7,-2,-6
1564164027333527,1,-6,-18,-18,-11,-11,-1,-1
1564164027333527,-5,-17,-33,-6,3,-1,-10,-7
1564164027354493,3,12,52,10,10,13,10,0
1564164027354493,-10,-19,-37,-6,-5,-8,1,-7
1564164027355985,3,-3,6,1,-4,-9,-10,-3
1564164027355985,6,20,20,-1,-2,2,-2,1
1564164027369460,-4,-16,-24,7,6,2,-1,1
1564164027369460,-4,-19,-21,-22,-8,0,-1,-2
1564164027370958,1,8,-3,-1,-9,-8,-9,0
1564164027370958,17,19,-18,-9,9,3,1,1
1564164027399441,-10,-19,5,0,-1,0,2,2
1564164027399441,7,10,21,12,3,-3,-7,-8
1564164027400909,-3,-2,13,0,-2,-3,-2,-9
1564164027400909,-16,-12,-4,-8,-8,-7,-10,-14
1564164027414415,17,3,-2,0,-3,2,-1,-2
1564164027414415,-8,-16,-22,-4,-7,-8,-6,0
1564164027415881,8,10,24,2,-1,-7,-5,7
1564164027415881,-6,-3,-4,1,0,-4,-6,0
1564164027430381,-4,2,-1,-3,0,11,4,4
1564164027430381,-9,-8,-8,-6,-3,-4,5,-3
1564164027435843,-1,-11,-24,-1,-6,-11,-9,-5
1564164027435843,1,9,5,2,-2,8,17,9
1564164027453336,-6,-5,-2,-1,1,-2,-2,-4
1564164027453336,9,22,9,-2,5,4,4,5
1564164027454802,-3,-6,3,2,2,0,0,-7
1564164027454802,9,12,14,6,1,5,3,6
1564164027474772,-6,-21,-46,-15,-6,-3,-4,-7
1564164027474772,-10,-12,49,13,2,-2,2,-1
1564164027476263,9,38,18,8,4,4,-1,4
1564164027476263,-9,-22,-11,-10,-7,-1,-3,4
1564164027488745,0,2,-18,-5,-4,-3,-1,-6
1564164027488745,13,19,5,-2,2,5,2,9
1564164027495725,-9,-15,8,-5,-5,-6,-7,-9
1564164027495725,9,13,-5,17,9,3,0,4
1564164027512195,-3,-7,6,-3,-2,-2,-1,-4
1564164027512195,-1,5,20,5,0,-3,-3,-13
1564164027513692,-3,-21,-13,-17,-6,-2,3,16
1564164027513692,-9,-12,1,-5,-6,-5,-3,-10
1564164027534652,10,28,4,5,7,3,0,8
1564164027534652,-12,-35,-49,-10,-6,-3,-4,-9
1564164027536151,-2,13,35,16,6,1,-1,-3
1564164027536151,1,0,7,-12,-8,-9,-6,0
1564164027548627,-3,1,18,4,-2,2,1,-3
1564164027548627,11,17,5,-2,-2,1,3,3
1564164027555614,-5,-10,-29,-11,-2,0,0,-1
1564164027555614,-6,-12,-3,17,8,-3,-1,-3
1564164027572106,3,30,41,3,3,3,1,-3
1564164027572106,14,10,-17,-8,1,2,6,12
1564164027573580,-8,-16,3,14,3,-5,9,0
1564164027573580,0,1,17,18,4,10,-4,-3
1564164027594582,4,18,-19,-20,-9,-11,-8,-3
1564164027594582,-12,-32,-33,-8,-8,-9,-7,1
1564164027596042,-18,-1,49,1,2,2,0,-18
1564164027596042,2,12,-29,9,2,13,14,22
1564164027609031,-6,-23,28,1,-9,-10,-6,1
1564164027609031,0,30,7,3,6,12,15,-3
1564164027623028,-1,-14,-36,-10,-4,2,-4,-9
1564164027623028,-2,-21,-21,-7,2,-1,2,-4
1564164027639470,1,-4,-5,0,3,-4,-5,1
1564164027639470,-1,17,26,-1,-7,-11,-9,-7
1564164027640959,0,-11,-32,-4,-1,1,1,2
1564164027640959,2,5,23,13,9,3,0,-4
1564164027654436,2,-11,-51,-19,-4,3,3,9
1564164027654436,6,27,82,19,7,6,3,5
1564164027660441,-10,-39,-61,-23,-13,-7,-6,0
1564164027660441,-3,-9,4,-10,-12,-11,-7,-1
1564164027668941,-1,4,2,9,0,-3,-6,-10
1564164027668941,8,20,27,6,6,16,4,3
1564164027675893,9,-19,-36,-2,-2,-1,5,7
1564164027675893,3,7,23,-5,-6,-7,-4,-4
1564164027691899,-31,4,10,12,7,0,-4,-7
1564164027691899,-6,0,-21,-5,-3,-4,4,-4
1564164027693361,10,12,2,3,4,3,-1,7
1564164027693361,-7,-13,-11,-5,-4,-5,-4,-11
1564164027714379,8,-6,9,4,2,4,1,5
1564164027714379,-5,-7,-5,12,4,-4,2,5
1564164027715838,0,20,27,-1,4,1,-1,2
1564164027715838,1,-2,-21,-18,-13,-8,-4,-3
1564164027728320,1,-10,-13,-3,-2,3,6,8
1564164027728320,-4,-12,-23,-3,1,-4,-2,-5
1564164027737275,18,47,14,13,9,7,-1,-1
1564164027737275,-18,-35,7,-6,-2,0,-2,-6
1564164027753245,5,1,25,7,-4,-1,6,-5
1564164027753245,-7,-4,-22,-28,-10,-7,-7,9
1564164027755242,-5,4,21,10,2,0,6,2
1564164027755242,0,12,-15,-6,-3,-3,-5,-5
1564164027774707,-7,-15,-8,2,-3,-2,0,5
1564164027774707,4,-15,4,8,3,5,-2,-9
1564164027776204,-3,13,-9,-5,-4,-2,-2,-1
1564164027776204,2,4,-6,-12,-4,-4,0,1
1564164027788221,1,5,29,11,2,-3,2,-7
1564164027788221,-7,-15,-27,-6,-5,-6,-12,-3
1564164027797185,2,7,8,2,1,12,12,-1
1564164027797185,-4,-13,8,10,3,3,2,2
1564164027812635,-2,-3,-21,-5,5,6,0,-2
1564164027812635,-3,8,38,-3,-9,-6,-6,-11
1564164027814136,-7,-27,-7,1,4,-3,0,2
1564164027814136,5,17,19,-15,-5,-3,-8,-7
1564164027834595,3,14,-2,-2,-1,-2,1,3
1564164027834595,0,-7,-27,-2,-2,-4,-3,6
1564164027836092,-5,-8,20,4,-5,4,7,-1
1564164027836092,5,2,7,2,3,2,3,4
1564164027849605,0,15,-9,-4,0,0,-1,-3
1564164027849605,3,-13,1,9,5,1,1,-2
1564164027857053,0,0,-6,2,-1,-5,-4,-5
1564164027857053,15,13,3,1,-2,-5,-10,6
1564164027872064,-1,-13,-3,-6,-3,0,4,2
1564164027872064,1,10,5,-1,-5,-1,-1,1
1564164027873531,-1,11,-13,-2,2,1,-3,0
1564164027873531,-10,0,0,-5,-1,-1,0,-5
1564164027893526,-4,-10,-6,4,-1,-1,-4,-2
1564164027893526,0,12,14,3,2,0,5,2
1564164027901973,0,-14,-28,-18,-8,-2,-12,-3
1564164027901973,-3,-6,-1,17,-1,-2,1,-2
1564164027907960,4,7,-1,-5,-4,-2,-3,-2
1564164027907960,-8,-15,-7,-9,1,3,-1,0
1564164027916951,11,25,26,10,0,-6,-3,2
1564164027916951,-8,-21,-33,-8,2,4,3,-1
1564164027931920,3,-2,-6,-1,-3,-1,-4,-4
1564164027931920,10,5,-7,8,-4,-1,0,1
1564164027933413,-8,-1,13,-3,8,-6,-8,-4
1564164027933413,2,-8,-6,7,5,8,8,3
1564164027954876,-2,8,11,-9,-7,-3,-1,1
1564164027954876,3,0,1,-10,-8,-1,0,-2
1564164027956370,-2,10,-19,10,14,5,3,2
1564164027956370,0,-18,5,6,-1,-7,-3,-4
1564164027968347,-3,3,10,4,2,0,-9,-4
1564164027968347,1,12,-1,-3,-2,0,1,0
1564164027977335,-3,1,-14,-5,-6,-2,-7,-8
1564164027977335,-3,4,10,-2,0,-6,-1,0
1564164027991803,1,-26,-6,-7,-5,-1,4,5
1564164027991803,-3,-3,-3,-6,-4,-2,-7,-9
1564164027993800,2,-11,9,8,-1,-1,3,2
1564164027993800,4,23,-10,-14,-2,0,-1,-2
1564164028014761,4,1,0,7,6,3,2,-1
1564164028014761,-3,-12,4,1,0,-3,-1,2
1564164028016269,-6,-13,-14,-8,-6,-7,5,-2
1564164028016269,1,13,12,6,-3,11,2,-1
1564164028028300,-9,-23,-26,-10,-1,-3,-3,-4
1564164028028300,6,14,9,10,10,2,2,3
1564164028037220,1,-4,5,-1,-5,-2,-6,0
1564164028037220,4,-6,-19,-18,-8,-9,-4,-1
1564164028052192,3,6,4,5,0,-2,0,0
1564164028052192,-5,-11,-11,6,11,3,0,-4
1564164028053688,1,0,-1,-4,-4,-2,1,1
1564164028053688,1,10,16,4,0,-1,0,1
1564164028074650,1,-3,-13,-13,-11,-3,-5,-2
1564164028074650,-2,2,-7,-3,-4,0,1,-1
1564164028076154,-3,-3,15,14,8,2,1,0
1564164028076154,-6,-20,-16,-2,0,-4,-3,-5
1564164028088124,7,31,20,-2,-2,-1,1,3
1564164028088124,-1,-7,-24,-6,-4,-3,-2,-1
1564164028104593,-3,1,9,0,-1,0,-1,-2
1564164028104593,-3,0,-6,1,4,-1,-3,-2
1564164028112113,-1,-6,-4,0,-3,0,1,1
1564164028112113,-4,-6,5,-3,-4,-1,1,1
1564164028113577,6,19,-1,5,-1,0,-2,0
1564164028113577,-4,-11,-4,5,4,-2,1,-1
1564164028134538,-10,-13,-10,-11,-8,-3,-3,-4
1564164028134538,-3,-3,2,7,8,1,0,-1
1564164028136036,-9,-12,-12,0,2,2,-1,-3
1564164028136036,-3,4,0,-1,-8,-5,-1,0
1564164028148045,-1,-2,-3,6,6,1,1,0
1564164028148045,1,3,7,-11,-13,-3,-2,0
1564164028157004,3,-5,-5,2,-6,-3,-4,-2
1564164028157004,5,3,-10,-12,8,2,0,2
1564164028179475,-12,-20,-2,-4,-3,-3,-1,-4
1564164028179475,5,18,-3,8,-2,-3,-1,2
1564164028180952,-7,-14,-8,-12,-6,-4,-2,-2
1564164028180952,6,32,24,12,-7,-3,0,2
1564164028194426,12,-29,-14,-11,-2,-1,-3,3
1564164028194426,-5,1,-6,20,20,7,2,-4
1564164028195924,2,2,-14,-27,-16,-5,-3,1
1564164028195924,-4,-7,3,10,5,1,0,-2
1564164028208402,2,8,0,-3,-2,-1,0,-1
1564164028208402,3,16,9,11,1,0,0,1
1564164028216886,-5,-15,4,-16,-1,-2,0,0
1564164028216886,-1,-6,-25,-5,-8,-5,-5,-1
1564164028231360,-25,-17,1,12,9,3,-1,-10
1564164028231360,9,15,4,-13,0,2,0,2
1564164028238343,-5,-12,-18,-3,-6,-2,1,-1
1564164028238343,-4,-4,13,1,-10,-3,-1,-3
1564164028254336,5,2,-1,4,4,1,2,-1
1564164028254336,-6,-9,8,-8,-14,-5,-1,-5
1564164028255811,18,14,5,3,13,3,3,3
1564164028255811,6,14,-2,10,9,4,4,4
1564164028276771,-32,-4,0,9,-6,-5,-3,-4
1564164028276771,-17,-17,-6,-28,-6,-3,-5,-8
1564164028278769,1,11,6,8,-3,0,-1,1
1564164028278769,9,-2,-1,4,1,-1,-1,0
1564164028291269,14,12,-2,-10,2,3,-1,2
1564164028291269,5,9,4,10,-2,1,1,8
1564164028298274,21,-1,15,-19,-6,1,-1,5
1564164028298274,-26,8,17,14,-9,-1,0,-1
1564164028314702,-32,-34,-18,9,19,4,-3,-18
1564164028314702,2,-7,-10,1,3,-2,-1,-6
1564164028316204,8,8,-6,8,7,-2,1,2
1564164028316204,19,18,-4,-20,-8,-3,-2,2
1564164028337166,1,19,15,-10,-11,-4,0,4
1564164028337166,23,-32,-20,2,-2,-2,0,6
1564164028338662,-10,8,5,10,-3,-4,-1,-3
1564164028338662,-20,-21,18,2,4,2,1,-5
1564164028351138,9,9,-31,-2,-6,-3,-2,0
1564164028351138,-4,1,18,-18,-4,-4,-6,-8
1564164028358164,-11,-5,5,17,-7,-2,3,11
1564164028358164,10,-8,-18,-29,0,0,-4,-1
1564164028382077,-18,-1,5,24,11,-1,-4,-16
1564164028382077,16,19,6,1,0,2,4,9
1564164028383578,-4,-5,-12,-10,0,0,4,6
1564164028383578,8,0,5,4,1,0,2,1
1564164028397070,49,18,5,4,-5,-2,4,12
1564164028397070,-64,-42,-18,5,-1,-3,-3,-15
1564164028398547,-53,-27,-2,1,1,-1,-8,-34
1564164028398547,1,36,8,-4,1,1,0,-5
1564164028410564,30,1,3,4,-1,0,-2,0
1564164028410564,15,-6,-9,2,7,1,5,22
1564164028419508,-21,-10,-15,-7,-2,-4,-6,-14
1564164028419508,-4,-8,0,-2,-4,-2,-2,-4
1564164028434482,22,6,-11,-13,-8,-2,-1,6
1564164028434482,-4,13,10,2,-1,2,0,-3
1564164028435976,0,5,14,5,7,1,1,4
1564164028435976,-15,-9,-9,6,3,-1,-3,-11
1564164028457475,3,4,-13,-14,-10,-4,-1,3
1564164028457475,-22,-5,-2,3,1,1,1,-4
1564164028458937,19,8,5,0,0,-1,1,3
1564164028458937,2,-3,-14,-2,1,1,0,-2
1564164028470414,-20,-9,17,3,0,0,0,1
1564164028470414,8,3,1,1,-8,-1,1,2
1564164028479405,18,11,3,-4,1,-1,1,1
1564164028479405,14,-20,-13,-5,4,2,2,11
1564164028495899,-13,13,7,-4,-2,-1,0,-7
1564164028495899,-19,-4,-8,-5,-2,-4,-7,-12
1564164028497365,-9,-2,2,2,-1,1,-1,-1
1564164028497365,18,4,-16,-7,-7,-3,-4,7
1564164028518332,-2,-14,5,-13,0,2,3,6
1564164028518332,8,6,11,14,1,0,-1,-2
1564164028519823,20,-6,-10,-5,-4,-3,-2,3
1564164028519823,-30,-10,2,2,4,1,0,-5
1564164028530808,-8,-1,7,-3,-2,-1,0,2
1564164028530808,6,10,11,5,4,2,0,-2
1564164028539785,5,-10,-36,-15,-4,-2,-2,1
1564164028539785,20,-8,4,-1,-7,-2,-1,1
1564164028554759,-1,12,6,5,3,0,1,-1
1564164028554759,2,-3,1,-6,-5,-2,1,0
1564164028556255,-1,2,-15,-3,-1,2,1,-2
1564164028556255,-3,-7,3,-2,-5,-1,2,3
1564164028577216,-5,1,7,8,6,-1,-4,-2
1564164028577216,21,0,-7,-6,-3,-3,-1,6
1564164028578713,-8,16,12,8,3,-3,-4,-7
1564164028578713,-5,-14,-18,-5,-2,-2,1,-5
1564164028590729,-5,-3,13,6,1,1,2,-1
1564164028590729,33,4,-16,-16,-4,-2,-3,3
1564164028599673,-4,-4,1,2,-1,-2,-1,2
1564164028599673,4,-3,-6,-3,0,0,0,3
1564164028614644,-10,-4,-4,2,2,0,-1,-2
1564164028614644,2,3,17,4,0,-2,0,-5
1564164028616142,0,1,3,1,-2,1,1,2
1564164028616142,1,7,9,1,2,-3,-2,-2
1564164028637138,-1,2,-15,-8,-4,-5,-1,-6
1564164028637138,-10,-17,-14,-1,0,2,1,-5
1564164028638600,1,-1,17,6,3,1,0,-1
1564164028638600,-3,-2,-5,2,3,1,0,2
1564164028650624,-23,8,7,1,-5,-1,-1,-10
1564164028650624,-10,3,-4,0,2,1,1,2
1564164028659565,-10,3,6,0,-2,1,0,-2
1564164028659565,-1,3,5,2,1,1,2,6
1564164028674538,2,-11,-10,-2,-3,0,-5,-6
1564164028674538,-1,5,0,-4,-1,-1,-1,-2
1564164028676035,5,-2,-2,-2,-1,-4,-2,-6
1564164028676035,-17,0,0,-1,-2,-2,0,-2
1564164028696992,18,-9,-9,-5,-1,5,4,9
1564164028696992,-18,-4,8,1,0,0,-2,-1
1564164028698489,18,-4,1,1,0,2,2,9
1564164028698489,-5,5,8,2,0,-2,-1,-9
1564164028719450,-2,-2,-6,-2,-3,-3,-2,1
1564164028719450,-1,-7,-6,-2,0,1,-1,-5
1564164028720948,-2,-1,3,2,-2,-1,2,4
1564164028720948,0,-4,-1,0,-1,-3,-3,-2
1564164028734920,16,8,3,0,0,0,2,4
1564164028734920,12,7,7,-3,-4,-3,-3,8
1564164028736418,-10,-2,-12,-4,-2,-2,-3,-6
1564164028736418,-10,-4,4,3,1,3,-1,-3
1564164028756883,11,11,5,1,3,2,1,11
1564164028756883,-12,-6,-17,-3,0,-1,-1,-12
1564164028758378,-1,-10,-11,-6,-7,-8,-9,-1
1564164028758378,-12,2,5,-2,3,1,0,-4
1564164028770359,-7,-2,4,3,4,2,3,0
1564164028770359,2,3,2,0,-1,2,6,8
1564164028785826,-9,7,8,3,1,-2,-6,-9
1564164028785826,1,2,-7,-2,-1,2,1,-1
1564164028794311,15,-4,-3,-5,-4,-7,0,6
1564164028794311,-12,4,5,3,4,4,-1,-7
1564164028796317,11,-6,-2,-2,0,0,4,3
1564164028796317,-6,0,0,2,6,6,5,0
1564164028816772,-1,-1,6,0,-2,-3,-3,-4
1564164028816772,6,-4,-8,-5,-4,-7,-5,3
1564164028818765,37,-5,-8,-7,-4,-1,4,13
1564164028818765,-3,3,-1,0,0,0,2,4
1564164028830742,-4,6,-7,-3,-1,-2,-2,-5
1564164028830742,-1,-9,-4,-2,-4,-2,0,-2
1564164028839726,-17,11,12,3,0,2,-1,-5
1564164028839726,3,-8,-6,0,1,-3,0,2
1564164028854202,-6,-5,-3,-1,-1,2,1,-3
1564164028854202,-9,1,0,-2,-2,4,-1,-1
1564164028860724,-12,-1,2,1,4,0,1,-3
1564164028860724,-21,18,4,-2,-3,-1,-5,-12
1564164028877163,-12,1,-3,-1,1,-2,-1,-3
1564164028877163,19,-2,1,1,2,-1,-2,0
1564164028878657,-2,0,0,0,1,4,4,-2
1564164028878657,22,-14,-9,-9,-8,-11,-9,-2
1564164028890652,6,17,12,3,1,-3,-5,1
1564164028890652,-11,-6,-9,-2,-3,1,2,-11
1564164028899619,6,-18,-8,-2,-3,-1,-2,-3
1564164028899619,15,0,-3,1,-1,2,0,-13
1564164028914631,-2,-11,-5,-2,-5,-4,-6,9
1564164028914631,-19,6,10,1,3,1,2,7
1564164028916092,-5,-4,-2,2,0,1,-1,4
1564164028916092,8,-6,-2,0,-1,2,2,6
1564164028937545,-9,-2,-3,-3,1,1,0,-8
1564164028937545,1,-4,1,0,-1,-6,-1,2
1564164028939042,16,-15,-6,-3,-3,-1,-2,-3
1564164028939042,-1,2,0,1,-2,-4,-4,0
1564164028950556,1,-7,-1,-1,1,4,1,-4
1564164028950556,4,5,0,-2,-2,-2,1,6
1564164028959517,5,7,-2,0,0,1,2,5
1564164028959517,-1,0,2,2,1,-3,-3,0
1564164028973983,-2,-3,-3,1,0,1,5,4
1564164028973983,-12,9,0,2,-1,0,-4,-7
1564164028980496,-14,10,14,-1,-1,-4,-1,-5
1564164028980496,-11,8,0,-3,-2,0,-1,-2
1564164028996966,-2,-7,1,-2,-2,0,2,-2
1564164028996966,-5,3,-10,-2,0,0,-1,-4
1564164028998434,5,2,18,0,-2,-3,-3,-1
1564164028998434,-2,-10,-4,-1,-1,0,1,2
1564164029010914,-3,1,-24,-7,-2,-1,3,-1
1564164029010914,-2,-25,-5,0,0,-6,-4,-2
1564164029019394,4,26,1,1,2,2,1,0
1564164029019394,0,7,6,-1,2,1,0,3
1564164029033368,3,-18,3,2,-1,-1,-3,-12
1564164029033368,16,-9,-3,-1,-2,1,-2,16
1564164029041353,19,-12,-10,-1,-1,-1,-3,-1
1564164029041353,12,-7,-3,-4,-3,-3,-4,-9
1564164029055827,-3,7,2,0,0,-1,2,7
1564164029055827,8,2,2,-2,-2,-1,0,-2
1564164029063842,-23,1,3,3,3,0,-5,-6
1564164029063842,-1,0,0,3,0,0,1,2
1564164029078814,-4,2,4,-2,-1,-1,-3,-6
1564164029078814,-5,9,5,1,1,0,2,1
1564164029079782,-12,-8,-4,0,-1,-1,0,-7
1564164029079782,-6,5,-3,-2,-2,0,0,1
1564164029093264,-6,-3,2,3,2,-1,-1,3
1564164029093264,18,-4,1,-3,-2,-2,-2,2
1564164029101273,-4,8,-7,-5,-1,0,0,-1
1564164029101273,-7,-5,2,3,0,-2,-3,0
1564164029116244,4,3,10,1,-3,1,-1,0
1564164029116244,7,-2,-14,-3,-1,1,-2,-2
1564164029117212,-7,-8,-8,-5,-5,-4,1,0
1564164029117212,-14,-10,-4,-1,1,1,-2,-10
1564164029139173,-4,16,4,0,-1,5,12,16
1564164029139173,8,3,9,2,1,0,-6,-3
1564164029140169,-28,11,15,2,2,3,2,-1
1564164029140169,-8,-4,-7,1,-1,-3,-1,-4
1564164029153145,9,-8,-2,-2,-1,-4,-3,-3
1564164029153145,-15,0,0,0,1,0,0,-6
1564164029161161,1,-5,4,2,-1,-2,1,0
1564164029161161,15,5,1,-3,-1,-1,1,7
1564164029176133,-2,-1,6,1,-1,-5,-5,-7
1564164029176133,2,1,-5,-4,-1,-1,1,0
1564164029177108,-8,-2,-10,0,4,0,-2,-3
1564164029177108,-2,2,18,4,-3,-2,1,-1
1564164029199060,4,-2,-14,-3,-1,1,-3,0
1564164029199060,-4,7,10,2,3,1,1,-3
1564164029199559,-4,-10,-6,-3,-2,1,-2,-2
1564164029199559,-26,2,-2,-2,0,3,1,0
1564164029215031,12,-7,-7,-6,-2,0,0,6
1564164029215031,-17,5,6,4,-1,-2,0,-4
1564164029216029,8,6,3,-2,0,-1,1,3
1564164029216029,18,-14,-16,0,0,0,1,4
1564164029236490,-15,8,13,-2,-1,-2,-2,-8
1564164029236490,3,-4,-9,-2,-1,1,1,-2
1564164029236990,11,-11,8,1,-1,-1,0,4
1564164029236990,5,4,8,0,-1,-2,-3,-2
1564164029258952,-2,-13,-23,-6,0,1,3,4
1564164029258952,-2,1,4,3,2,1,-6,-5
1564164029259447,-8,4,-4,-3,-3,-1,-4,-16
1564164029259447,10,-4,-3,-1,-1,1,5,27
1564164029273921,13,-14,-3,-2,-5,-4,-12,-22
1564164029273921,-19,9,-1,-2,-2,0,6,9
1564164029274420,-6,6,2,0,-1,-4,0,1
1564164029274420,-13,-3,2,-1,2,-3,-1,-4
1564164029296380,-3,5,0,-1,-1,-2,1,4
1564164029296380,14,-7,-2,-4,-2,-2,-3,-4
1564164029296879,8,-4,-3,1,0,3,0,2
1564164029296879,0,-1,-5,-4,-2,-3,-1,-2
1564164029318839,-5,2,2,1,-1,-1,1,3
1564164029318839,5,3,2,1,-1,-1,-2,-9
1564164029319338,-2,-2,-7,0,-1,0,4,5
1564164029319338,-4,2,-3,-3,1,2,-2,-4
1564164029333808,7,-4,-1,-1,0,0,0,3
1564164029333808,-14,-2,12,2,-3,-3,-1,-3
1564164029341295,8,-14,-9,-3,-2,-1,-1,5
1564164029341295,31,-1,-5,-3,-2,-2,-2,1
1564164029356281,-18,9,-3,0,0,1,-1,-6
1564164029356281,2,0,2,3,2,1,1,0
1564164029357265,-6,-10,-3,-6,-2,-3,-3,3
1564164029357265,-1,-1,-7,-5,-3,-2,-5,-15
1564164029378746,6,0,5,0,3,-1,3,17
1564164029378746,9,-8,-21,-9,-4,-4,-1,1
1564164029379724,5,12,6,3,1,1,-2,-2
1564164029379724,9,-10,-1,-1,-1,-1,2,0
1564164029393718,-5,-4,-5,-1,-3,-2,-2,-3
1564164029393718,-1,-3,0,-1,-3,-2,-2,-2
1564164029394717,3,2,6,2,0,-1,0,1
1564164029394717,-18,8,0,0,-1,0,-2,-5
1564164029416176,11,-10,-4,-1,-2,0,-2,-8
1564164029416176,21,-5,-7,-4,-6,-2,-2,2
1564164029417156,12,-4,-3,-1,-1,-1,0,4
1564164029417156,-4,2,-3,-1,1,1,-1,0
1564164029438635,2,0,10,3,-2,-2,-2,4
1564164029438635,-5,-1,-8,-5,0,2,1,-2
1564164029439613,2,4,8,3,1,-2,-3,6
1564164029439613,-7,-6,3,3,0,-3,-3,-2
1564164029453086,-5,3,-3,-3,1,-1,-1,-3
1564164029453086,-16,5,-1,0,2,0,-3,-6
1564164029461093,1,-6,1,1,-2,-2,3,-1
1564164029461093,-12,5,6,2,3,1,-1,-8
1564164029476065,2,9,0,-2,-4,0,2,14
1564164029476065,12,1,-8,-4,0,-3,0,2
1564164029477043,-5,-3,-6,1,2,1,1,1
1564164029477043,17,-9,-7,-2,-2,-2,0,1
1564164029499522,15,-7,-1,-1,-3,-2,-3,-5
1564164029499522,-4,2,3,-1,-3,-2,0,3
1564164029500003,12,-1,-7,-6,-4,-2,-2,-2
1564164029500003,3,1,2,2,0,1,2,2
1564164029513973,-13,2,-1,-1,-1,-2,-4,-8
1564164029513973,2,-7,-12,-4,-4,0,-3,-2
1564164029514473,1,-12,4,3,1,-2,0,1
1564164029514473,1,11,2,-1,-2,1,7,13
1564164029536435,-5,-4,-11,-2,0,-2,-7,-12
1564164029536435,6,-3,7,1,0,-2,0,2
1564164029536932,-11,7,-6,-5,-2,0,-1,-8
1564164029536932,-13,-5,6,1,0,1,-3,-4
1564164029566880,-6,-3,3,2,2,-1,2,7
1564164029566880,-2,-6,-6,-1,-1,-1,-1,-15
1564164029567875,-14,4,1,-1,-2,-2,0,7
1564164029567875,6,4,4,-2,-2,0,-2,-1
1564164029573866,-3,-1,5,3,0,0,-1,-1
1564164029573866,-15,-3,10,1,0,-1,0,-8
1564164029574363,-5,3,-15,-7,-5,-4,-4,-7
1564164029574363,-38,0,-5,5,5,4,2,-8
1564164029596352,0,6,8,5,0,2,1,3
1564164029596352,2,-3,11,4,1,0,-1,4
1564164029597321,-12,0,-3,-1,-1,1,-2,-9
1564164029597321,7,-5,-4,-2,-5,-3,-2,2
1564164029620301,-1,-4,-4,1,3,-2,2,-1
1564164029620301,0,6,1,0,0,-1,0,2
1564164029620775,3,-5,0,-1,-1,-1,0,3
1564164029620775,2,-2,-2,-4,-2,-2,-2,1
1564164029633751,-1,6,4,1,0,2,0,-3
1564164029633751,-1,-13,-7,-3,-2,-3,-3,0
1564164029634752,3,-9,-3,-1,0,1,2,1
1564164029634752,-4,7,0,0,0,0,-2,-5
1564164029656210,-5,1,1,-1,-2,-1,0,-1
1564164029656210,6,2,6,0,-1,-1,-1,0
1564164029657209,-10,4,-2,-1,0,1,-3,-9
1564164029657209,2,-4,-7,-2,2,-2,2,8
1564164029679671,-4,-3,2,1,-2,-3,-2,-7
1564164029679671,4,0,-3,1,1,1,1,4
1564164029680166,-5,6,-7,-1,1,1,0,-7
1564164029680166,-2,1,6,-1,-3,-2,-5,-10
1564164029693649,4,-7,-11,-3,-2,-3,-2,6
1564164029693649,5,0,0,-2,-1,0,2,13
1564164029694638,-3,12,14,4,3,2,-1,-10
1564164029694638,7,-5,-5,-1,-2,-3,-3,0
1564164029716102,5,-2,-2,-4,0,-1,0,2
1564164029716102,-19,-6,-8,0,-1,0,0,-14
1564164029717096,1,-4,0,1,1,0,-2,6
1564164029717096,7,1,-1,0,-3,-5,-4,5
1564164029739577,-18,1,11,2,0,0,-1,-9
1564164029739577,4,4,2,0,2,0,1,5
1564164029740054,-5,2,0,1,-1,-1,1,2
1564164029740054,-2,-1,1,0,-1,0,-2,-8
1564164029753528,-1,0,-8,-6,-2,-1,1,2
1564164029753528,-3,3,0,-1,-2,0,0,-2
1564164029754530,4,-7,-2,0,-2,-1,-4,-9
1564164029754530,-5,8,10,1,-1,1,1,11
1564164029776485,0,-7,-4,-8,-2,-1,-3,-2
1564164029776485,-12,6,-3,1,0,-1,-1,-3
1564164029776988,7,3,16,6,-1,-1,0,3
1564164029776988,4,-11,-8,-3,-1,2,1,-3
1564164029799474,-1,7,1,3,2,1,1,0
1564164029799474,12,-11,-8,-4,-1,-6,-9,-10
1564164029800443,-12,0,-2,-4,-2,-5,-3,1
1564164029800443,-7,-1,8,-1,1,-1,-1,-1
1564164029812949,3,-3,-2,1,-1,0,2,3
1564164029812949,3,-3,-4,-2,0,2,1,0
1564164029821482,-6,-5,-3,-3,-2,0,-3,-5
1564164029821482,-6,5,4,1,3,0,6,7
1564164029835955,9,-5,-6,-6,-3,-2,-9,-8
1564164029835955,-2,5,3,1,0,0,3,6
1564164029843971,21,3,0,-2,-4,2,2,11
1564164029843971,25,5,-7,0,-2,-4,1,6
1564164029859417,-41,-15,-3,-1,-1,-1,-2,-11
1564164029859417,-18,-5,1,-1,-3,-2,-6,-22
1564164029860410,-30,-3,-1,-1,-3,-2,0,1
1564164029860410,10,-2,-4,-3,-1,-2,-4,2
1564164029873383,26,10,-2,0,2,-3,0,2
1564164029873383,11,5,5,-3,1,-2,0,9
1564164029881401,10,-5,-14,-1,-1,-1,0,2
1564164029881401,6,-3,-4,-1,-2,0,0,3
1564164029896874,-2,-7,-2,-1,-1,-1,-2,-4
1564164029896874,6,1,2,1,-2,5,4,5
1564164029897343,28,-4,-6,-5,0,-5,-3,8
1564164029897343,-6,-1,-2,-2,-1,0,0,-7
1564164029919300,8,-7,-2,-1,-2,-2,2,4
1564164029919300,4,-4,-3,-1,-1,-2,1,6
1564164029920298,9,-1,4,0,-2,1,1,3
1564164029920298,-9,-1,-3,-1,1,1,0,-6
1564164029933272,-7,-2,4,0,0,-2,-1,0
1564164029933272,6,3,0,1,-1,-3,-1,3
1564164029941260,-16,0,-1,-2,0,-3,-2,-7
1564164029941260,-4,-12,-2,0,2,-1,-3,-7
1564164029956262,-17,9,6,1,0,2,2,1
1564164029956262,7,4,4,-1,-1,-1,-2,4
1564164029957230,-2,-15,-7,-3,0,-2,1,0
1564164029957230,-10,22,-2,0,-2,-1,-4,-8
1564164029979687,6,-12,-2,-1,-1,0,-3,-19
1564164029979687,-11,4,5,0,-1,2,6,20
1564164029980186,28,-13,-17,-7,-5,-2,-2,3
1564164029980186,-7,-15,3,0,0,0,-1,-3
1564164029993193,8,19,4,2,-1,-2,1,4
1564164029993193,-6,3,-5,-3,-2,-3,-2,-9
1564164030001148,-8,-2,3,0,1,-1,-1,-5
1564164030001148,4,-7,-6,-3,-1,0,0,4
1564164030016150,4,7,4,1,-1,-3,-2,3
1564164030016150,-1,-8,-3,1,-1,-3,-2,-3
1564164030017118,-9,8,4,1,0,-1,2,1
1564164030017118,-3,-4,-1,0,1,2,-1,-6
1564164030047162,3,-1,-1,1,-3,1,2,4
1564164030047162,-19,-7,-5,-3,-1,-3,-4,-7
1564164030047635,-4,-4,0,4,6,1,-1,-5
1564164030047635,3,10,-1,-3,-3,-1,-1,-1
1564164030053125,4,-18,-7,-7,-6,-3,-2,4
1564164030053125,5,14,-1,3,1,-2,1,1
1564164030061112,3,-10,-2,-1,-5,-3,-4,-5
1564164030061112,3,-11,1,-2,-1,-5,-4,1
1564164030076077,0,0,-1,4,2,2,1,2
1564164030076077,-17,-11,-1,-5,-3,-3,-4,-12
1564164030077075,-3,10,-7,-3,0,1,1,1
1564164030077075,4,3,-2,0,-3,-1,-1,1
1564164030099565,13,-9,-2,-5,-2,-3,1,8
1564164030099565,2,8,16,8,3,1,-2,-3
1564164030100065,-4,3,1,1,1,0,1,-4
1564164030100065,-9,0,-7,0,-5,-3,1,-2
1564164030121500,5,1,-7,-5,-3,0,1,-2
1564164030121500,-4,-5,-10,-6,2,3,0,2
1564164030129015,-1,3,6,1,0,-2,-1,2
1564164030129015,13,-10,-5,-1,1,-1,3,7
1564164030136465,-2,8,8,3,2,-1,1,4
1564164030136465,4,-4,-7,-2,-5,-4,-3,1
1564164030136964,-5,0,2,0,-1,-1,-1,-3
1564164030136964,-9,6,11,2,-2,-1,-1,-3
1564164030159458,-19,6,0,-4,0,1,0,-6
1564164030159458,3,-17,-6,-3,-3,1,1,2
1564164030160419,5,-1,-3,-3,0,-2,-1,3
1564164030160419,-1,14,4,-15,-6,-3,-2,-2
1564164030181941,-16,-1,-7,7,3,-1,-1,-6
1564164030181941,7,-1,-1,3,4,3,2,1
1564164030182885,-7,-4,11,6,2,4,0,-5
1564164030182885,-6,-18,-2,5,1,1,-1,-2
1564164030196390,13,22,11,-11,-8,-2,-2,1
1564164030196390,1,5,-2,-4,-4,-1,-2,-9
1564164030197352,1,13,-3,-3,0,-1,1,14
1564164030197352,-19,-23,-7,1,4,2,-2,-10
1564164030219311,5,-5,0,6,4,0,2,8
1564164030219311,-8,0,-7,-6,-3,-4,-1,-4
1564164030220808,11,-1,3,1,-4,-1,0,2
1564164030220808,-11,4,0,-3,0,-2,-4,-7
1564164030241832,-11,-13,2,3,-3,1,-1,-3
1564164030241832,23,12,-7,0,1,-1,-2,4
1564164030248816,-5,-8,-10,-4,-4,-4,-3,-4
1564164030248816,-1,6,0,4,3,-1,0,4
1564164030256248,-26,-8,1,-1,-1,-2,-3,-13
1564164030256248,7,-6,-8,-4,-2,-1,0,6
1564164030257240,33,-2,-2,-2,-5,-5,-1,3
1564164030257240,-10,-6,6,12,2,1,-1,-2
1564164030279199,12,-12,-10,-11,0,-1,1,0
1564164030279199,-16,6,6,4,5,2,1,-2
1564164030280199,-7,11,-4,4,-1,0,0,-5
1564164030280199,1,3,-7,-3,-1,-3,0,0
1564164030302155,3,-7,2,0,-5,-2,-4,2
1564164030302155,3,-6,1,1,-2,-3,-1,-1
1564164030303655,-10,3,-1,-5,-2,1,-2,-4
1564164030303655,3,5,3,4,-1,-3,-1,0
1564164030324615,-7,-2,2,5,4,2,-1,1
1564164030324615,1,7,-3,-8,-9,-4,-3,-1
1564164030325120,1,-8,0,-6,0,0,1,0
1564164030325120,3,6,4,6,3,3,5,2
1564164030339608,8,-2,-14,1,3,-1,2,3
1564164030339608,-11,-3,7,6,-4,-2,-2,-4
1564164030340095,-8,-12,13,2,-2,-3,-4,-5
1564164030340095,17,25,-3,-4,-4,-4,1,3
1564164030362109,3,-24,-20,-9,3,-1,-7,-3
1564164030362109,1,0,-2,0,-1,-2,-4,-3
1564164030362577,-14,-1,-8,-1,-2,-2,-3,-6
1564164030362577,5,-2,-2,-6,-6,-2,0,0
1564164030376518,-11,-1,6,7,-1,1,3,-2
1564164030376518,-1,-3,2,1,2,1,1,-2
1564164030377025,-3,2,-10,-5,-3,-3,-2,-1
1564164030377025,-1,-6,4,-3,0,-1,-1,-2
1564164030398508,16,9,-4,-7,-6,-5,0,1
1564164030398508,-4,-5,3,9,6,2,0,1
1564164030406470,-9,-2,3,-3,-1,1,2,-3
1564164030406470,3,-3,-6,-7,-3,-1,-3,3
1564164030421940,-28,6,6,5,-2,1,-2,-10
1564164030421940,3,-6,1,-3,0,4,2,1
1564164030422933,-11,13,4,2,1,3,-2,-5
1564164030422933,-4,-6,-5,5,4,1,-3,0
1564164030436414,9,9,5,5,2,0,-2,-1
1564164030436414,1,-6,-2,-2,-5,-3,-1,0
1564164030436910,0,-5,-3,-2,-2,0,0,2
1564164030436910,-1,-2,1,-3,-6,-1,-3,-3
1564164030459394,-3,2,1,-4,3,0,0,2
1564164030459394,-8,3,1,2,3,1,-1,-2
1564164030460868,8,-3,-8,-6,-1,-2,-2,0
1564164030460868,0,5,8,0,0,-2,1,1
1564164030481822,2,-12,-12,-2,-4,-3,3,0
1564164030481822,-9,1,1,-3,-3,-4,-2,-2
1564164030483820,-4,8,8,7,2,0,2,-1
1564164030483820,-2,6,9,0,0,-2,-1,-4
1564164030495796,-1,-1,-10,-4,-2,-3,-4,-2
1564164030495796,-3,-14,-6,-4,-1,-5,-2,1
1564164030504781,3,-1,-3,2,2,1,0,0
1564164030504781,-1,-1,-4,1,-1,0,-2,-1
1564164030526739,-1,3,2,-9,-5,0,-1,1
1564164030526739,10,-1,-6,-12,-13,-5,-2,2
1564164030528737,8,-2,6,7,15,4,1,1
1564164030528737,-7,4,-5,9,6,0,0,-2
1564164030542210,9,0,10,10,4,1,-1,2
1564164030542210,5,10,-9,-9,-5,-3,-1,1
1564164030543708,-1,-4,-3,-13,-7,-3,-2,0
1564164030543708,-1,-5,-6,-11,-9,-4,-3,-1
1564164030555689,-1,-3,4,6,1,1,-1,0
1564164030555689,-3,-3,0,0,-1,0,4,-1
1564164030564669,-9,0,-6,6,-3,-3,1,-2
1564164030564669,-4,0,6,0,5,0,-5,-3
1564164030579645,-9,3,4,4,0,1,0,0
1564164030579645,7,2,4,2,2,0,-3,0
1564164030581138,-8,-4,2,-1,-2,-3,-2,-3
1564164030581138,1,-8,-14,-9,-5,0,1,1
1564164030602098,4,12,13,-1,-5,-3,-1,-1
1564164030602098,-1,-11,-13,-1,0,2,-1,-3
1564164030603597,2,0,1,6,6,0,0,-2
1564164030603597,8,-5,-2,-2,-7,-3,-1,0
1564164030615572,4,2,-16,-13,-6,-2,-2,-1
1564164030615572,-11,-2,15,29,17,7,2,-3
1564164030630576,-10,5,6,6,3,3,2,-2
1564164030630576,-3,-7,1,3,-1,-1,-1,-2
1564164030639538,2,1,-4,-5,2,-1,2,1
1564164030639538,-2,12,5,-5,-5,-3,-1,-1
1564164030641028,11,-10,-11,-4,-6,-2,-2,3
1564164030641028,-30,-7,5,-1,-3,1,0,-7
1564164030662018,2,-7,1,1,1,-3,-2,-2
1564164030662018,2,9,0,1,-1,0,-2,1
1564164030663492,7,4,-4,-5,-1,-1,0,0
1564164030663492,3,4,0,-3,-3,0,-1,0
1564164030675992,-5,-4,-4,7,-3,-2,-2,-3
1564164030675992,-2,-2,1,4,1,-2,0,0
1564164030684446,4,3,0,-4,-4,-3,-1,0
1564164030684446,0,-6,-5,-1,1,-2,-1,-1
1564164030699419,-2,2,-2,-1,1,0,0,-3
1564164030699419,2,-7,3,-2,-1,-1,-1,-4
1564164030700916,-6,-5,-5,-4,-6,0,-1,-3
1564164030700916,3,3,2,1,2,-1,-2,0
1564164030729364,0,-4,-5,-5,-1,0,-1,-1
1564164030729364,2,4,-1,-5,-3,-1,0,1
1564164030731359,0,-10,7,-1,-2,-4,-3,0
1564164030731359,13,6,-5,0,1,0,0,4
1564164030735851,-11,4,3,-2,-3,0,0,-3
1564164030735851,0,-5,-6,-2,-1,0,0,-2
1564164030744335,-2,2,0,-2,2,2,-1,-3
1564164030744335,-1,-4,2,3,1,1,-1,-2
1564164030759326,4,-2,0,2,-4,-2,0,2
1564164030759326,-4,1,-5,-6,1,1,-3,-2
1564164030760803,0,-3,-9,-7,-7,-4,1,-1
1564164030760803,-1,0,6,1,2,-1,0,-1
1564164030781785,0,2,-1,1,2,0,1,-3
1564164030781785,-1,-4,-2,0,0,-1,0,-1
1564164030783761,3,2,-1,1,1,-2,-3,0
1564164030783761,-5,0,0,-3,-3,-1,0,-1
1564164030795762,-1,-2,1,0,-3,-5,-2,0
1564164030795762,3,-2,3,-2,-2,2,-1,-1
1564164030804722,0,-3,-2,6,0,-3,-1,0
1564164030804722,5,-6,-4,-1,-1,0,0,0
1564164030819695,9,8,-2,-7,4,3,0,2
1564164030819695,-3,-4,-5,-1,-1,-1,-2,-1
1564164030821193,-3,5,4,-6,-6,-2,-1,-2
1564164030821193,-7,-14,-7,8,3,1,0,-3
1564164030842170,6,2,1,-4,-3,-2,-1,4
1564164030842170,1,10,1,-6,-3,-1,1,0
1564164030843651,-9,-20,-1,0,-1,1,-1,-3
1564164030843651,3,-1,-2,0,-1,-3,-1,-1
1564164030855633,-5,-14,-11,-3,4,1,0,0
1564164030855633,-3,5,2,-4,-2,-1,-4,-2
1564164030864612,-2,-2,8,1,-2,-2,-3,-4
1564164030864612,0,21,2,-3,-2,2,0,0
1564164030878616,3,-17,-7,-2,-3,-1,-3,2
1564164030878616,-1,1,-2,-4,-4,-4,-2,-1
1564164030885579,0,-3,-14,-1,-5,-2,1,1
1564164030885579,-3,0,0,-4,-2,-2,-2,-1
1564164030902042,-2,6,6,3,4,3,0,-3
1564164030902042,2,-5,6,2,-6,-4,-3,0
1564164030908062,0,5,-6,-9,0,-1,-2,0
1564164030908062,-5,-5,-7,-9,-6,-4,-3,0
1564164030915517,-5,-6,-12,-5,-4,-4,-2,-2
1564164030915517,-3,-8,7,7,5,1,2,-1
1564164030924501,-2,5,0,1,1,0,-1,-3
1564164030924501,-1,0,11,-8,-3,-5,-3,1
1564164030938973,-3,8,-9,-4,2,-3,-5,-7
1564164030938973,0,-5,-19,-3,-9,-3,-2,-1
1564164030952946,-4,-5,9,1,2,0,2,0
1564164030952946,-1,-5,-14,7,2,2,-3,-4
1564164030961961,-1,11,24,3,-1,0,0,0
1564164030961961,-1,-3,19,6,2,1,-1,-2
1564164030963441,-2,-4,-10,-2,-2,0,-1,0
1564164030963441,-4,-3,-1,-6,-7,-2,0,-1
1564164030975436,-1,1,-1,-5,-1,0,1,2
1564164030975436,-5,0,-16,-1,4,1,1,0
1564164030984889,1,3,19,4,2,1,1,0
1564164030984889,1,-4,-11,0,7,1,1,-2
1564164030998393,0,-4,10,7,3,-4,0,-1
1564164030998393,0,8,-6,-8,-9,-4,-1,-1
1564164031007346,1,5,1,1,-1,-1,-1,-1
1564164031007346,-3,-3,17,5,-2,0,-1,-2
1564164031021849,0,-1,-7,0,-5,3,2,1
1564164031021849,-2,-4,0,-1,2,0,1,0
1564164031023815,-5,-5,-21,-5,0,1,-2,-2
1564164031023815,6,7,4,0,4,0,-4,-5
1564164031035796,-2,-8,-11,-6,-3,-3,0,-1
1564164031035796,1,-3,4,-1,-2,-2,-5,-3
1564164031044797,-2,0,-4,-6,-7,-6,-2,-2
1564164031044797,1,-5,-5,1,-1,0,-1,2
1564164031058781,-3,3,-2,-5,-3,1,-1,-2
1564164031058781,-4,-8,-24,5,7,2,-1,-2
1564164031065770,3,6,17,3,-5,-3,-3,1
1564164031065770,4,-2,-10,2,12,2,1,4
1564164031082206,0,0,15,6,-10,1,0,3
1564164031082206,-1,-7,-6,-15,1,2,4,0
1564164031083711,-6,12,3,11,12,3,2,-1
1564164031083711,-9,3,0,-9,-8,0,3,-2
1564164031104670,-3,2,-1,-2,1,1,0,-1
1564164031104670,-5,-11,-14,-17,-5,-4,-8,0
1564164031106169,2,-3,9,17,-2,-2,1,3
1564164031106169,-12,14,10,-1,-4,-2,-2,-5
1564164031118657,10,-19,-6,1,3,-1,3,7
1564164031118657,-7,8,5,-1,-3,-2,-1,-4
1564164031125632,7,2,-20,-14,-2,-1,-2,-3
1564164031125632,-17,-10,15,9,-4,-1,1,-8
1564164031142094,2,9,5,-4,-2,-2,-3,0
1564164031142094,19,6,4,-2,0,2,7,6
1564164031143593,7,-3,-7,-1,1,3,16,12
1564164031143593,33,13,4,9,4,3,-2,10
1564164031164554,-18,-6,-3,-11,-6,-4,-8,-11
1564164031164554,2,2,7,13,9,5,5,9
1564164031166051,-6,6,-2,-2,-4,-7,-17,-18
1564164031166051,-24,-7,-7,1,-2,-7,6,-12
1564164031179027,16,-24,-15,1,8,2,4,14
1564164031179027,-4,18,9,2,-6,-2,-4,-7
1564164031185516,-1,9,6,-6,-3,2,3,-5
1564164031185516,15,-24,-25,-5,3,6,10,20
1564164031201992,-24,8,12,6,-1,-4,-16,-13
1564164031201992,11,-24,-21,-16,-12,-9,-1,4
1564164031203482,3,-2,-5,-10,0,-1,0,7
1564164031203482,33,16,1,-8,-3,-3,-3,-4
1564164031231960,-18,19,2,6,2,5,7,-1
1564164031231960,-28,-25,10,21,2,-6,-12,-19
1564164031233427,-19,-18,-13,-10,2,-4,-12,-18
1564164031233427,8,-4,6,-16,-10,-10,-4,3
1564164031237923,6,13,-11,12,14,10,13,12
1564164031237923,56,17,14,-14,-7,2,3,14
1564164031246901,-37,-4,4,13,-3,2,-1,-10
1564164031246901,-5,-11,-6,-6,7,2,-3,18
1564164031261881,8,-5,-7,-9,-14,-10,-21,-16
1564164031261881,-8,0,6,13,2,6,7,0
1564164031263370,-17,-7,3,6,8,8,5,-10
1564164031263370,-18,5,-2,-15,-5,0,7,-10
1564164031284364,37,17,11,12,-2,-2,-3,-7
1564164031284364,23,-1,-2,5,21,10,11,22
1564164031286327,47,0,-7,-7,-5,1,9,31
1564164031286327,-65,10,13,13,-11,-3,-2,-25
1564164031298341,-9,-23,-11,-4,17,-1,8,-7
1564164031298341,-16,4,-3,9,3,3,8,2
1564164031307296,17,2,4,-8,-5,-12,-15,-6
1564164031307296,-14,-18,-14,2,10,9,-4,1
1564164031321822,-67,3,-1,-16,-8,5,5,-19
1564164031321822,-19,0,-11,-11,-19,-20,-19,-23
1564164031323759,51,2,8,20,7,-8,-2,31
1564164031323759,-51,-20,-10,-23,-16,-11,-19,-25
1564164031344720,-47,-12,-2,21,17,14,19,-7
1564164031344720,1,11,17,1,1,1,-14,-8
1564164031346222,6,-1,-15,-2,-9,3,2,0
1564164031346222,53,-5,-9,17,14,-8,3,9
1564164031359690,49,-15,-12,-42,-20,-9,-18,5
1564164031359690,-24,9,-2,-5,-6,-7,-3,16
1564164031368175,-19,10,11,16,-2,-2,-10,-11
1564164031368175,-66,-31,1,6,13,6,0,-25
1564164031381650,43,9,-7,-19,-23,-13,-10,5
1564164031381650,3,1,7,40,36,18,27,-10
1564164031383647,-71,-59,-23,-48,-18,-3,-2,-19
1564164031383647,26,30,4,-2,1,8,-5,12
1564164031404630,-98,-37,1,-5,-8,-17,-8,1
1564164031404630,87,21,13,28,4,3,-8,17
1564164031406104,5,-4,-3,-26,-11,-7,2,20
1564164031406104,-82,-57,-32,-31,-30,-24,-42,-90
1564164031418121,15,9,4,0,10,3,-4,4
1564164031418121,9,8,2,-36,-17,-1,-3,-7
1564164031433058,45,0,-9,24,1,-3,5,41
1564164031433058,61,30,10,-12,2,8,10,32
1564164031442036,1,-14,-16,-8,-10,-3,2,-20
1564164031442036,24,12,-2,33,21,-1,24,41
1564164031443534,-90,3,11,-28,-29,-15,-43,-72
1564164031443534,75,32,25,47,29,15,21,-3
1564164031464518,76,-14,-10,-7,-4,0,-17,-15
1564164031464518,-18,-33,-18,-49,-29,-15,5,-6
1564164031466002,78,5,6,5,2,-4,-19,-1
1564164031466002,-30,-8,-15,-9,-26,-16,-11,-13
1564164031478013,-13,16,24,44,31,19,39,46
1564164031478013,-40,1,-4,-9,0,-1,1,-8
1564164031486953,-3,28,12,13,-4,5,16,23
1564164031486953,-13,-23,-3,34,23,-3,7,-4
1564164031509445,80,47,7,-31,-34,-19,-22,31
1564164031509445,4,27,-2,21,24,18,19,7
1564164031510912,-106,-47,-12,-18,4,-1,-1,-27
1564164031510912,56,39,21,11,15,19,7,43
1564164031524446,38,28,25,31,1,5,26,25
1564164031524446,-13,-41,-7,-8,-5,1,-6,-14
1564164031525883,-35,10,-15,-8,7,2,9,-6
1564164031525883,119,4,1,-21,-18,-6,0,55
1564164031538368,-71,-17,-14,-8,-9,-2,-8,-33
1564164031538368,-38,-1,11,-34,-15,-5,-20,-16
1564164031547344,-66,34,18,69,35,13,7,-37
1564164031547344,47,5,-1,-58,-29,-4,10,67
1564164031561848,15,5,-3,37,27,8,17,18
1564164031561848,80,18,3,19,2,0,-2,18
1564164031563313,-72,-27,-12,-34,-5,0,-13,-12
1564164031563313,17,20,0,10,-11,-19,2,3
1564164031584780,-53,-65,-4,29,9,3,-6,-33
1564164031584780,56,17,0,11,23,7,-31,4
1564164031586272,37,10,10,12,2,-4,48,22
1564164031586272,12,-2,-12,2,1,6,-19,-13
1564164031598281,-106,-18,-6,-50,-28,-11,-12,-19
1564164031598281,50,-7,-2,15,-5,-1,8,39
1564164031607232,-3,-22,-25,-24,-23,-6,-34,-44
1564164031607232,-27,-1,13,-5,12,3,-4,-5
1564164031622205,-27,26,6,40,14,2,2,-6
1564164031622205,34,4,10,-8,2,8,11,10
1564164031623707,-49,38,11,-57,2,1,-13,-1
1564164031623707,0,-38,-6,80,-3,11,44,11
1564164031644684,126,60,2,-16,10,-1,-24,55
1564164031644684,-112,-29,7,-9,0,12,15,-14
1564164031646159,50,-62,-35,-10,-11,-11,-2,-25
1564164031646159,-128,7,-5,-28,-21,-18,-28,-42
1564164031658173,125,61,43,12,13,11,23,58
1564164031658173,-128,-54,-25,24,-10,-28,-52,-74
1564164031667153,55,54,-7,-32,-17,14,42,67
1564164031667153,38,-48,13,-8,20,6,-15,-7
1564164031682092,39,23,0,50,15,2,22,-10
1564164031682092,-49,28,20,-36,-17,-1,-3,1
1564164031683590,75,-22,-8,44,15,1,-4,-3
1564164031683590,65,77,19,-2,7,12,15,55
1564164031703553,-107,-61,-32,-44,-11,-10,-20,-61
1564164031703553,40,4,-6,-25,-17,-13,1,-4
1564164031712045,39,-28,-5,-11,1,2,-3,0
1564164031712045,-24,16,2,29,3,1,4,-5
1564164031718025,-16,0,9,3,-8,-7,-8,44
1564164031718025,-128,-42,-46,-26,-15,-9,-21,-100
1564164031727017,2,27,17,-15,-2,2,-3,19
1564164031727017,44,31,5,11,8,2,24,9
1564164031742018,-87,-64,-18,0,-10,-9,-28,-50
1564164031742018,42,35,14,21,16,8,23,49
1564164031743479,115,9,17,-17,-4,-6,-5,13
1564164031743479,-128,-105,-55,12,-6,-11,-14,-80
1564164031764476,22,33,16,-8,-1,8,9,20
1564164031764476,51,-21,-7,-10,-13,3,22,23
1564164031765937,-124,10,11,31,15,-7,-23,-32
1564164031765937,45,17,13,-28,-12,1,7,26
1564164031778413,-123,-31,-23,-22,-4,-6,-16,-52
1564164031778413,110,42,14,46,13,8,16,62
1564164031787397,-57,19,0,17,5,-4,6,-16
1564164031787397,-112,-54,-29,-25,-8,-10,-8,-15
1564164031801902,117,31,12,-9,1,6,8,21
1564164031801902,-63,-19,17,32,12,-7,-8,-23
1564164031803367,-7,9,6,1,-6,-2,1,15
1564164031803367,33,25,7,7,-2,3,5,6
1564164031824365,-19,-36,-13,-7,3,-1,-5,-7
1564164031824365,78,47,-9,-28,-13,-7,-14,10
1564164031825832,-101,-75,-11,24,15,6,6,-40
1564164031825832,55,2,3,-23,-6,-1,1,27
1564164031838320,2,31,12,-20,-1,7,12,-2
1564164031838320,33,-18,-29,21,3,-13,0,-11
1564164031847296,22,37,11,3,-4,5,-5,21
1564164031847296,1,19,-6,-23,-6,-3,-20,-14
1564164031862259,26,-23,1,18,6,5,20,22
1564164031862259,-128,10,0,-25,-10,-6,-11,-30
1564164031863767,69,-12,1,1,-11,-3,-9,17
1564164031863767,-34,-16,6,53,27,3,2,-15
1564164031884715,21,22,-26,-36,-7,3,9,8
1564164031884715,-20,-11,13,-5,-5,-4,-7,-1
1564164031886245,43,3,-15,-47,-21,-5,0,9
1564164031886245,-9,12,17,25,-1,-4,-12,-9
1564164031898227,-59,-34,-8,30,11,-8,-14,-30
1564164031898227,44,11,2,-16,-11,5,4,9
1564164031913223,-13,37,6,-7,-1,-12,-18,6
1564164031913223,29,-47,-5,13,14,9,26,11
1564164031922182,-47,7,-8,-16,-20,-7,-16,-20
1564164031922182,37,4,4,-7,7,4,4,19
1564164031923645,47,0,6,32,13,4,4,8
1564164031923645,-80,17,6,-6,4,6,-6,-8
1564164031944638,25,-13,-2,-1,-10,-9,-4,-2
1564164031944638,-44,-25,-21,-15,3,3,2,-17
1564164031946108,7,-7,0,29,17,8,17,8
1564164031946108,3,18,12,-7,-11,-5,-11,-4
1564164031958115,-6,5,6,2,4,-2,-2,4
1564164031958115,-26,-5,4,18,11,3,7,-3
1564164031967071,-3,-10,-2,-10,4,4,13,14
1564164031967071,-22,13,-4,-17,-8,-2,0,-10
1564164031981068,35,-4,-2,6,-10,-5,-10,1
1564164031981068,31,-11,4,11,6,-3,-1,8
1564164031989520,-22,-16,-3,5,-3,-2,-6,-13
1564164031989520,8,15,-16,-36,-14,-4,1,-1
1564164032004524,10,8,-4,9,1,-7,-9,3
1564164032004524,-26,-24,0,12,7,5,7,-6
1564164032005991,-42,-10,7,3,-3,-4,-7,-6
1564164032005991,36,2,-9,-24,0,1,-2,5
1564164032026991,32,2,-2,4,-1,4,20,10
1564164032026991,-23,5,7,4,-2,-2,-8,-6
1564164032028449,29,11,-4,12,10,2,-2,5
1564164032028449,-28,-7,3,-12,-4,-4,-4,-5
1564164032041936,17,10,1,2,-4,-6,1,4
1564164032041936,27,9,8,-17,-14,1,5,6
1564164032043429,-6,1,-3,32,21,1,-2,-1
1564164032043429,5,-13,-2,1,2,2,0,0
1564164032064886,-18,3,-8,-23,-6,3,2,-11
1564164032064886,-18,-3,2,-2,-8,-6,-6,-9
1564164032066379,53,21,0,-19,-7,-2,3,9
1564164032066379,-39,-32,4,23,5,3,5,0
1564164032086900,3,11,2,-3,6,-2,-16,-16
1564164032086900,-56,-13,-9,-8,-5,1,6,0
1564164032088338,46,1,-7,-8,-3,2,18,17
1564164032088338,-10,16,13,8,-1,-1,-3,2
1564164032101846,-42,7,3,-11,-3,-5,-16,-16
1564164032101846,74,3,-8,-14,-3,1,-6,5
1564164032103808,11,1,5,24,8,-1,8,1
1564164032103808,-8,-3,-4,0,-2,-3,7,1
1564164032124308,-27,-1,4,10,1,4,-2,2
1564164032124308,41,15,-20,-23,-6,-3,-12,-11
1564164032126267,-68,-49,-3,-9,-15,-8,-6,-12
1564164032126267,42,18,0,-2,6,-3,-5,3
1564164032147228,8,-15,11,11,-4,5,11,6
1564164032147228,-37,-11,-12,-2,7,-8,-16,-15
1564164032148729,15,3,0,-17,-12,0,-6,-3
1564164032148729,9,21,-5,-2,3,-2,22,6
1564164032162200,-34,-24,4,-1,-1,-2,-7,-6
1564164032162200,33,2,17,10,-9,2,15,28
1564164032163696,-29,-14,-22,-1,18,7,-5,-18
1564164032163696,-4,20,7,-32,-15,-8,-20,-11
1564164032184660,15,-16,-11,13,-3,1,13,5
1564164032184660,21,34,8,21,12,-3,-2,4
1564164032186156,-2,3,11,-2,-11,-5,-3,6
1564164032186156,-15,-22,-12,1,-2,8,0,-11
1564164032207122,60,26,6,10,19,11,23,28
1564164032207122,-74,-13,2,-6,-1,-3,-10,-5
1564164032208615,-16,-4,6,-7,-15,-5,-7,-7
1564164032208615,-13,-28,-17,1,-6,-10,-21,-10
1564164032221089,-1,-14,0,-27,-10,5,26,0
1564164032221089,0,-1,-10,4,2,-1,15,6
1564164032228115,17,23,9,11,11,6,-7,12
1564164032228115,11,-6,-2,2,-2,-5,-6,-8
1564164032244580,-1,-5,-6,-5,-6,-4,-11,4
1564164032244580,-25,-15,3,9,5,1,10,-8
1564164032246044,8,23,5,-20,-16,1,-1,-1
1564164032246044,39,-7,2,2,2,-2,-5,9
1564164032267507,-28,-2,2,29,9,-9,-9,-13
1564164032267507,12,1,-21,-40,-16,0,3,-1
1564164032269003,-45,-15,7,1,4,1,-5,-12
1564164032269003,83,28,3,16,2,6,13,16
1564164032281515,-30,10,7,-4,-2,-1,-10,-9
1564164032281515,9,-26,9,1,1,-4,0,4
1564164032288005,7,2,-8,18,4,0,-4,-6
1564164032288005,-3,-2,-6,-27,-12,-3,-31,-5
1564164032304496,-32,-29,-10,-17,-7,-9,26,-2
1564164032304496,-1,22,4,25,10,5,-16,0
1564164032305934,11,5,1,-20,-5,-8,-1,3
1564164032305934,-36,-15,5,18,12,9,11,-4
1564164032326930,8,4,-14,-13,-12,-7,-25,-15
1564164032326930,-33,-10,-4,-11,-14,-8,-11,-15
1564164032328392,9,1,-9,-10,-3,-2,5,-1
1564164032328392,13,8,2,8,5,7,9,14
1564164032341868,9,5,11,4,13,5,3,7
1564164032341868,10,-4,-1,0,7,0,-4,-7
1564164032348354,-16,-5,0,13,-1,1,8,7
1564164032348354,-31,-4,0,0,-4,-4,6,-12
1564164032364385,38,2,-11,-22,-10,3,4,10
1564164032364385,-6,6,7,-7,-19,1,-4,-11
1564164032366320,33,-29,-6,15,24,5,1,16
1564164032366320,-32,16,2,2,2,-3,-8,-1
1564164032386283,17,15,-4,-13,3,1,8,0
1564164032386283,-45,-4,9,4,-7,-1,3,2
1564164032394768,27,12,5,-7,-8,4,7,-3
1564164032394768,10,-2,-1,12,6,4,6,12
1564164032401255,-14,-4,-3,2,-5,1,-7,-4
1564164032401255,8,1,-6,0,5,-3,-11,-2
1564164032408276,-29,0,-3,-15,-5,-1,14,-8
1564164032408276,-11,-6,2,17,-3,-3,15,3
1564164032424720,15,9,-2,-16,-4,-2,-13,-6
1564164032424720,1,-8,9,12,-1,2,4,4
1564164032426214,-18,3,-5,4,4,1,-10,-1
1564164032426214,-14,0,0,-12,-4,-5,-13,-23
1564164032447199,-44,-27,-8,-3,1,-2,3,4
1564164032447199,13,-3,-12,-23,-11,-2,5,2
1564164032448674,-21,3,4,23,0,-2,-13,-15
1564164032448674,-6,0,5,-10,-3,1,6,5
1564164032461205,2,28,15,18,4,3,-3,3
1564164032461205,3,-25,-7,3,1,1,8,-6
1564164032469635,-22,-15,-4,-9,-5,-3,4,3
1564164032469635,33,11,-8,-17,-1,-1,15,19
1564164032484607,12,-3,-1,19,4,-3,-11,-5
1564164032484607,-1,18,11,11,6,1,2,3
1564164032486098,17,6,3,2,2,2,1,0
1564164032486098,-21,-20,-6,-9,-3,-3,-9,-9
1564164032507097,20,6,-2,2,-1,-3,-6,1
1564164032507097,7,-2,-9,0,-2,-3,8,2
1564164032508556,-23,2,-2,-14,-8,2,11,-3
1564164032508556,67,13,17,-3,-4,-1,-8,15
1564164032520573,-17,-12,-10,16,12,-3,-8,-4
1564164032520573,-27,-4,-3,-10,-3,-4,-1,-4
1564164032529525,17,-34,-7,4,3,-2,-5,-4
1564164032529525,14,42,1,-16,-12,-3,-4,2
1564164032546520,7,-9,3,0,-1,1,2,5
1564164032546520,-33,-11,0,1,2,-1,3,-8
1564164032547989,3,14,-1,1,3,3,1,-3
1564164032547989,-28,-18,-6,-1,-4,-7,-10,-15
1564164032566947,18,-9,-9,11,-11,-9,-8,2
1564164032566947,10,13,3,-8,4,0,10,8
1564164032568446,8,2,3,0,-5,-1,1,6
1564164032568446,-18,-8,-5,0,4,3,-2,-8
1564164032580923,-3,1,1,-2,-3,0,-3,-6
1564164032580923,9,-7,-7,-11,-11,-6,-8,2
1564164032589414,18,18,-12,-20,-10,-4,-1,-4
1564164032589414,-44,-28,1,30,15,0,0,0
1564164032604378,25,5,14,1,-3,-1,1,10
1564164032604378,35,10,-11,-3,1,4,-6,4
1564164032618352,-16,3,4,-8,-10,-6,-2,1
1564164032618352,-50,-19,-6,-10,0,1,-6,-17
1564164032626836,-3,6,2,8,7,5,5,3
1564164032626836,17,-1,-2,1,1,-6,9,4
1564164032628335,2,-1,0,-11,-3,-3,-7,1
1564164032628335,16,-6,-3,-1,-3,1,0,0
1564164032640809,-34,1,-7,-8,-13,-4,-4,-12
1564164032640809,36,6,6,15,-1,-5,-11,1
1564164032649792,-13,-7,-5,6,10,7,8,2
1564164032649792,38,6,-2,0,-3,-7,-15,-2
1564164032671751,-12,1,2,-20,4,7,25,1
1564164032671751,16,5,4,13,1,0,-7,3
1564164032673748,-10,-4,0,12,2,0,2,-4
1564164032673748,23,-3,-13,-16,-3,-1,-3,4
1564164032686727,5,7,6,-3,-13,-9,-2,6
1564164032686727,-36,-42,-7,-7,6,4,-5,-12
1564164032688722,-22,21,16,18,2,-2,-5,-13
1564164032688722,-9,13,3,10,9,10,13,6
1564164032700726,21,-16,-1,-4,0,-3,-9,-5
1564164032700726,-21,11,1,-3,-1,2,9,8
1564164032709704,20,2,-1,-2,-1,-7,-17,-4
1564164032709704,-16,-8,-9,-17,-14,-9,-4,-10
1564164032724662,15,-7,2,20,7,3,17,19
1564164032724662,-9,-9,-3,-5,-7,-1,-18,-9
1564164032726158,20,10,-8,-2,3,5,11,5
1564164032726158,7,-5,1,-8,-10,-5,-2,0
1564164032747149,3,5,3,4,7,7,15,0
1564164032747149,-19,4,1,-22,-8,-5,-17,-16
1564164032748617,24,0,-4,15,10,0,-9,16
1564164032748617,-18,-3,-2,-10,-4,-2,5,-11
1564164032771096,-49,-10,5,20,13,9,-6,-8
1564164032771096,20,18,1,-5,-7,-3,4,-5
1564164032772566,13,-11,-5,-1,-2,1,5,8
1564164032772566,16,9,7,5,-3,-6,-7,3
1564164032784544,-31,-5,-3,-1,0,1,-6,-14
1564164032784544,-8,8,-2,5,1,1,4,-1
1564164032786043,-38,-23,-4,-11,-5,-1,0,-7
1564164032786043,66,4,-4,4,2,0,4,21
1564164032807001,-14,-11,-1,-21,-14,-7,-3,-11
1564164032807001,-6,-14,2,20,14,4,3,-1
1564164032808500,2,16,4,-4,-7,-5,-3,-11
1564164032808500,-37,-17,-5,-3,3,3,4,-5
1564164032820476,15,17,-7,-9,-5,-5,-10,-1
1564164032820476,31,3,-2,-12,-7,-7,9,12
1564164032829466,-17,0,9,12,0,-3,0,1
1564164032829466,-1,-2,-3,4,15,8,6,2
1564164032844432,0,0,-12,-7,-3,-4,-10,-5
1564164032844432,-22,-8,4,1,-4,1,-1,-5
1564164032845930,6,5,2,-8,-7,-2,4,2
1564164032845930,-14,6,4,-3,-7,-5,-17,-9
1564164032866890,25,-12,-9,-2,-2,0,8,3
1564164032866890,-12,14,2,12,14,8,2,2
1564164032868387,15,-1,-1,-3,-5,-1,5,8
1564164032868387,-12,2,0,6,-2,-4,-6,0
1564164032880364,-5,-2,1,-13,-8,-10,-10,-6
1564164032880364,4,-2,15,9,-3,4,4,4
1564164032896838,0,-1,3,4,7,9,4,3
1564164032896838,-12,-8,-35,-14,-12,-25,-17,-3
1564164032904357,6,-2,12,7,3,-6,5,5
1564164032904357,9,-1,-13,-4,-9,-7,10,22
1564164032905817,-13,-7,-17,-15,0,-8,-15,-20
1564164032905817,9,14,23,12,16,38,15,3
1564164032926817,9,6,17,5,-3,-19,0,15
1564164032926817,-6,-9,-5,7,10,13,-12,-3
1564164032928277,-1,-1,2,-8,-14,-28,-5,-13
1564164032928277,-4,-25,-57,-30,-12,16,22,-7
1564164032949737,-1,10,20,1,8,20,-3,3
1564164032949737,-12,-1,1,4,0,-5,1,-9
1564164032951235,17,-2,11,7,0,0,-2,11
1564164032951235,-10,6,9,16,2,-10,3,-7
1564164032964709,-2,-10,-26,-13,-6,5,-4,-1
1564164032964709,4,6,-4,-7,-9,-6,7,3
1564164032966234,2,2,9,1,3,8,2,-3
1564164032966234,1,2,22,8,-4,-12,-7,-4
1564164032987189,-5,5,-15,-3,-5,-2,1,0
1564164032987189,-5,-9,-36,-4,5,-3,-10,-10
1564164032988665,-5,-8,14,-1,4,3,4,-7
1564164032988665,4,12,8,4,-3,-2,3,13
1564164033011124,-1,-12,7,4,-8,-4,-2,-4
1564164033011124,0,20,4,-5,6,6,-3,-7
1564164033012626,-2,5,0,6,5,7,0,8
1564164033012626,-1,-10,11,1,-1,-2,3,2
1564164033025096,0,-6,-18,-4,-3,-3,-6,-8
1564164033025096,1,-1,1,0,-2,-8,-5,-9
1564164033032085,2,3,13,-1,-4,1,-7,2
1564164033032085,3,-5,-27,-7,-4,-2,-9,5
1564164033047055,-12,-11,-8,-4,0,0,3,-12
1564164033047055,-6,-5,20,0,-6,-9,-10,-7
1564164033048553,6,16,-13,-4,2,6,19,4
1564164033048553,-2,17,28,22,11,9,9,3
1564164033069513,19,19,27,3,5,2,-17,-2
1564164033069513,-30,-60,-42,-19,-12,-16,-4,-4
1564164033071012,13,16,-41,-12,5,22,23,13
1564164033071012,8,-4,4,-10,-10,-14,-13,0
1564164033084510,0,10,45,20,0,-7,2,-3
1564164033084510,-2,10,33,7,2,2,-11,4
1564164033085985,-13,-15,5,3,0,-3,-3,-5
1564164033085985,-4,2,-32,-10,2,3,3,-7
1564164033106984,-5,-7,-15,-3,-2,-12,-10,-7
1564164033106984,18,21,45,23,6,9,4,-2
1564164033108441,-18,-4,-10,3,7,3,0,3
1564164033108441,-4,-2,26,-3,-7,-4,0,-17
1564164033129445,-3,8,-23,-6,6,3,6,6
1564164033129445,-4,-30,1,-9,-2,0,6,2
1564164033130903,1,-14,-18,-8,-9,-4,-5,-7
1564164033130903,-4,-4,-2,15,3,-11,-7,5
1564164033142920,15,17,16,14,6,11,7,19
1564164033142920,2,26,0,-5,-1,7,6,-10
1564164033152361,1,0,40,3,-1,-5,-4,10
1564164033152361,-25,-29,-21,-6,0,-7,-8,-13
1564164033174818,13,13,9,8,6,0,6,5
1564164033174818,-10,-9,1,0,-12,-13,-28,-4
1564164033176315,5,6,-22,-6,-1,-1,-8,-14
1564164033176315,-7,3,-8,-8,-2,-2,5,3
1564164033189330,2,15,17,13,3,6,-6,0
1564164033189330,2,-2,-18,-34,-12,-17,-13,-7
1564164033191288,-3,-1,-33,7,5,4,-14,-12
1564164033191288,1,-30,-3,-11,-7,21,40,40
1564164033203265,-20,-34,-53,-34,-12,2,-11,-14
1564164033203265,9,-31,-56,-8,0,0,-1,8
1564164033212249,-7,24,37,13,-8,-10,-2,-13
1564164033212249,10,15,13,7,5,-5,-12,-2
1564164033227722,-9,-14,-16,-12,-6,7,0,-9
1564164033227722,8,14,-6,-3,-6,-7,11,12
1564164033229221,-13,1,-35,-4,7,3,-1,-8
1564164033229221,-3,-22,18,-15,-21,-16,-17,-13
1564164033250679,-1,10,17,4,-4,-4,11,10
1564164033250679,2,17,16,11,20,12,6,2
1564164033252673,18,-2,17,16,8,1,4,9
1564164033252673,-4,-21,-75,-27,2,3,0,-1
1564164033263155,-9,-12,-8,-17,-17,-16,-14,-14
1564164033263155,4,16,23,12,0,2,6,-1
1564164033272138,-2,0,13,7,2,5,-3,5
1564164033272138,-7,9,-15,-10,0,-2,-4,-46
1564164033287115,8,-4,-23,-1,10,5,9,20
1564164033287115,-27,-16,26,22,4,4,-8,-31
1564164033288607,11,-27,-4,-20,-13,-10,10,40
1564164033288607,3,17,42,24,10,15,8,5
1564164033309610,-9,-2,-32,-14,-2,-1,-10,-26
1564164033309610,-1,9,-37,-2,-3,4,6,5
1564164033311067,-6,5,21,-24,-18,-17,-8,2
1564164033311067,0,-2,2,18,4,-6,-7,-9
1564164033323084,3,7,9,-6,-8,0,5,-2
1564164033323084,11,-5,7,7,15,4,8,25
1564164033339516,-2,-7,-11,-7,-11,-7,-2,-20
1564164033339516,-1,-6,-12,-5,-8,-3,-7,2
1564164033346996,11,3,10,15,23,10,6,9
1564164033346996,6,4,12,4,-5,-7,-7,-7
1564164033348495,-11,-11,-13,-13,-4,7,13,-1
1564164033348495,16,22,12,-3,-9,-3,-1,13
1564164033377003,-16,7,21,5,0,-4,-1,-9
1564164033377003,-13,-24,-25,-7,0,5,7,-2
1564164033378441,6,7,28,10,0,-3,-9,0
1564164033378441,2,-1,-24,3,6,3,4,3
1564164033382932,9,-4,20,-1,-1,-5,2,12
1564164033382932,6,-2,7,-11,-8,0,-10,3
1564164033391923,-6,-12,-28,3,0,1,-4,1
1564164033391923,5,36,11,-4,0,-2,-5,0
1564164033406947,-7,-14,12,17,3,-1,-10,-29
1564164033406947,1,7,11,-11,-9,0,6,1
1564164033408385,-7,-11,1,8,0,-3,-7,-13
1564164033408385,-2,5,4,8,2,-10,-7,0
1564164033429405,6,1,1,-2,9,9,16,12
1564164033429405,0,9,-16,-2,9,4,5,-4
1564164033431342,-4,0,-1,4,4,-3,2,-3
1564164033431342,-2,-6,7,-15,-9,-3,-6,-16
1564164033451804,2,8,8,4,-9,4,5,16
1564164033451804,-13,-23,-5,-4,-6,-9,-8,-14
1564164033453800,10,4,-27,-19,-2,4,6,26
1564164033453800,-1,0,45,26,11,3,0,0
1564164033466279,-2,-4,-27,-11,-6,-5,-12,-4
1564164033466279,-10,7,22,8,-6,-3,4,-4
1564164033467275,-12,20,1,-5,4,3,1,-16
1564164033467275,-3,-15,18,11,3,-2,-6,2
1564164033488740,-15,-10,-7,-13,-5,-2,3,4
1564164033488740,4,6,-4,-8,-11,-5,-7,-8
1564164033489733,-2,-7,20,24,16,6,-1,-5
1564164033489733,6,23,4,2,0,-1,5,14
1564164033511231,12,14,45,23,10,5,-3,-2
1564164033511231,-3,-3,-56,-26,-10,-6,-4,0
1564164033512192,7,-1,0,7,-1,-3,4,1
1564164033512192,-6,-4,-5,-13,-7,-6,-10,-9
1564164033526200,2,2,3,3,-5,-2,-12,-1
1564164033526200,5,12,3,5,3,-3,0,10
1564164033527165,17,1,-17,-4,0,5,-11,-8
1564164033527165,-8,-19,-26,-5,-3,4,11,2
1564164033548623,-4,-16,-6,-13,-12,-9,-6,-1
1564164033548623,5,0,23,25,10,9,3,5
1564164033549624,-3,-6,-8,-15,1,-5,-3,-3
1564164033549624,7,17,-2,-12,-13,-3,-1,-3
1564164033574083,2,-20,-16,-17,2,-5,-4,-1
1564164033574083,-10,-7,19,16,7,3,6,3
1564164033574584,-3,-10,-3,12,-3,-5,-3,-3
1564164033574584,-2,-7,-15,-11,2,5,1,1
1564164033586052,-1,8,-12,-7,-3,-4,2,-1
1564164033586052,7,7,10,-8,1,0,1,8
1564164033587053,-6,-3,16,10,-3,-8,-13,-12
1564164033587053,-2,-4,-7,-7,-2,4,-7,-15
1564164033609011,-7,-5,-27,-4,-6,-2,3,1
1564164033609011,7,2,12,-5,-2,-9,-2,10
1564164033609518,-2,11,-1,-1,-2,9,9,0
1564164033609518,7,1,25,10,0,-8,6,0
1564164033623020,-3,-20,-4,-3,4,6,2,2
1564164033623020,-1,9,-19,-4,-4,-1,1,-8
1564164033631505,3,3,7,-5,0,-5,1,8
1564164033631505,2,15,3,-4,3,-1,2,4
1564164033646471,-11,-8,-6,5,2,1,1,-1
1564164033646471,-4,-7,-23,-9,-3,1,-5,-2
1564164033646971,0,-4,34,19,4,-1,1,4
1564164033646971,-3,-7,-12,-13,0,2,-5,-11
1564164033668901,-7,-11,-11,-6,-10,-11,0,-4
1564164033668901,9,22,1,-10,-8,9,0,0
1564164033669400,-8,-12,-12,4,5,1,-2,-7
1564164033669400,-3,-13,-5,12,7,1,8,23
1564164033683373,-9,30,23,2,-1,-11,-17,-32
1564164033683373,-14,-22,-3,-2,-6,3,6,-17
1564164033691359,8,3,-3,-7,5,3,2,10
1564164033691359,-6,-9,-2,10,2,-4,2,3
1564164033706329,18,0,-10,-5,4,7,6,10
1564164033706329,4,17,20,11,1,0,-1,-1
1564164033706831,-6,-11,-15,-6,-8,-7,-8,-6
1564164033706831,-3,8,9,-3,-4,-4,-2,-5
1564164033728793,3,-7,-7,-8,-8,-5,0,2
1564164033728793,-3,-11,11,5,3,-2,-3,-12
1564164033729788,-5,-20,-18,-10,-4,3,8,17
1564164033729788,7,22,9,7,-3,-6,-13,-3
1564164033743298,7,20,-5,-3,-7,1,2,1
1564164033743298,5,-21,20,0,7,3,0,6
1564164033751285,-7,-9,-37,-7,1,-3,2,4
1564164033751285,-1,-7,-14,-10,-2,1,-4,-7
1564164033766253,4,14,35,22,-3,0,-1,1
1564164033766253,-11,-20,-31,10,7,-10,-7,-8
1564164033767217,6,3,17,-7,6,12,0,-2
1564164033767217,-2,-3,9,9,5,5,6,10
1564164033788714,-10,-9,-17,-13,-5,-8,-8,-21
1564164033788714,11,11,-12,-6,-3,2,2,13
1564164033789675,-3,-9,12,1,-12,-6,3,-3
1564164033789675,-6,-1,-2,-11,-6,-5,-6,-13
1564164033803189,-10,-9,2,7,4,7,5,14
1564164033803189,1,5,-13,5,5,-1,-4,-2
1564164033811173,8,40,35,4,-2,-4,-4,-5
1564164033811173,-9,-30,-14,2,-3,-2,1,-1
1564164033826145,-1,1,-8,-9,2,2,0,2
1564164033826145,-6,-17,-18,-12,-1,2,3,7
1564164033827113,1,25,4,-3,-8,-7,-12,-11
1564164033827113,5,0,13,5,-3,-5,-5,3
1564164033849066,-8,-6,2,15,4,4,1,-11
1564164033849066,-8,-17,6,-3,-2,0,8,9
1564164033849564,10,19,15,-3,-4,1,-4,1
1564164033849564,-7,-17,-20,5,10,3,-4,-4
1564164033863040,3,-19,-14,-7,-3,-4,-1,0
1564164033863040,4,20,17,8,-3,2,6,-4
1564164033871529,-4,18,24,-4,-6,-10,-4,-7
1564164033871529,-3,-15,-48,-22,-6,-2,-16,-2
1564164033886502,3,7,24,15,8,5,3,5
1564164033886502,-7,20,-6,-11,-8,-4,-11,-23
1564164033886994,7,-23,-16,-1,-1,1,7,27
1564164033886994,7,12,14,9,0,-1,0,4
1564164033908954,3,-2,-8,-15,-4,-3,1,7
1564164033908954,-4,-2,9,4,1,-1,-6,-4
1564164033909455,2,-6,-3,5,6,3,-1,-16
1564164033909455,7,18,7,-5,-8,1,-3,4
1564164033931948,-4,-8,1,6,-3,-1,7,-3
1564164033931948,13,-9,-2,3,1,-4,-9,3
1564164033932914,-12,3,-13,6,6,5,4,0
1564164033932914,0,1,4,-13,-2,-3,2,7
1564164033946421,6,5,8,-7,2,0,-5,-4
1564164033946421,-13,-18,-23,-6,-4,6,0,1
1564164033946918,0,-11,-14,-3,-4,-7,0,-5
1564164033946918,8,16,34,19,3,2,6,0
1564164033968878,2,-2,-31,-10,-4,-4,-1,-1
1564164033968878,2,14,1,4,13,3,5,3
1564164033969349,-7,-25,-2,-8,-5,-9,-5,-3
1564164033969349,-13,-4,4,7,-1,5,8,-6
1564164033991836,20,9,-7,-5,-3,-5,1,5
1564164033991836,-4,8,11,5,2,1,-4,-9
1564164033992805,4,-1,-8,-3,-4,0,5,8
1564164033992805,-3,-18,15,1,0,-4,-5,-8
1564164034006809,8,35,17,7,3,7,3,9
1564164034006809,-8,-11,-11,1,-5,-2,5,1
1564164034007278,7,-3,-22,-19,4,-2,-18,-11
1564164034007278,6,15,11,7,0,-2,12,19
1564164034028791,-11,-34,-8,2,0,-2,-4,-14
1564164034028791,6,12,5,-9,-13,-8,-5,-1
1564164034029729,-9,4,10,7,3,9,5,-4
1564164034029729,-3,-13,-15,-19,3,-1,-1,-3
1564164034051190,6,13,20,1,3,2,-2,2
1564164034051190,-3,0,14,12,-3,-2,0,2
1564164034058719,-8,-30,-44,-8,-10,-8,-7,-9
1564164034058719,1,7,2,0,-2,-4,0,-3
1564164034066162,-4,-7,-7,3,1,6,2,7
1564164034066162,1,20,12,-15,-6,-2,1,3
1564164034067160,6,-16,17,-3,-5,-1,-1,2
1564164034067160,-4,14,-15,3,8,4,-6,-5
1564164034088620,-6,-4,14,11,1,-1,1,-5
1564164034088620,5,-6,-20,-1,7,-2,-3,1
1564164034089618,0,7,8,10,-2,-1,0,-1
1564164034089618,3,-7,-8,-16,-8,-2,-1,-2
1564164034112077,-2,5,3,15,1,-3,-2,0
1564164034112077,0,-16,3,-2,4,5,0,1
1564164034112576,5,17,-4,-1,3,-3,2,2
1564164034112576,2,7,7,3,-8,-2,0,0
1564164034126549,-7,-10,-24,-10,-3,-5,-5,-2
1564164034126549,-8,-7,-1,-11,6,4,1,-2
1564164034127049,0,-1,5,-5,-5,2,1,-1
1564164034127049,-5,-3,-4,12,2,0,1,-4
1564164034148510,3,17,21,-5,-10,-5,-2,-2
1564164034148510,4,-15,-16,4,3,-1,2,3
1564164034149507,0,6,5,-19,-3,-2,-4,0
1564164034149507,-9,-2,1,18,5,6,5,-1
1564164034171966,-1,-3,-7,-10,-1,-5,-5,-1
1564164034171966,10,7,11,-9,-10,-1,-3,-3
1564164034172464,5,4,5,20,3,2,7,7
1564164034172464,3,2,-12,-28,-3,2,-9,0
1564164034186438,-5,-7,-1,15,13,5,8,-1
1564164034186438,-29,-2,-4,-9,-14,-8,-9,-12
1564164034186938,-5,-31,-5,-3,-15,-7,0,-1
1564164034186938,9,14,0,-17,1,-2,-3,4
1564164034208896,8,-4,-7,-14,-10,0,7,4
1564164034208896,17,3,0,21,18,6,-5,2
1564164034209395,-25,8,-4,-2,4,0,-2,-11
1564164034209395,0,-11,5,12,-3,-5,1,-3
1564164034231885,-2,-4,1,-16,-4,-3,1,-3
1564164034231885,10,12,7,-6,-9,-6,5,4
1564164034232853,12,1,-9,5,3,1,-2,6
1564164034232853,-8,-5,3,3,5,3,10,3
1564164034246364,2,1,-7,-3,-2,1,-12,1
1564164034246364,6,-8,5,0,-10,0,10,10
1564164034247326,-10,12,-1,0,5,-1,-11,-7
1564164034247326,-3,-8,-11,1,-4,-5,-17,-8
1564164034268823,4,18,7,16,8,-1,-8,-11
1564164034268823,-22,-15,-4,-9,-5,0,1,-4
1564164034269286,-8,-12,-15,-23,-8,0,3,0
1564164034269286,12,-3,5,18,11,-1,7,3
1564164034291743,4,7,1,-16,-3,7,8,9
1564164034291743,-11,-9,-6,14,-4,-7,-11,-7
1564164034292742,-10,3,10,3,4,1,-3,1
1564164034292742,-34,-27,2,-5,-7,-4,-12,-21
1564164034306247,-12,-6,-20,-22,-9,-5,0,-10
1564164034306247,16,2,1,5,1,2,11,15
1564164034307214,43,15,4,-6,4,7,15,15
1564164034307214,16,9,-2,-3,-6,1,-1,9
1564164034328734,6,-11,3,18,6,-2,-13,-6
1564164034328734,-10,19,2,-21,-4,0,-11,-8
1564164034329672,-4,-16,-9,6,3,-5,-4,0
1564164034329672,16,16,5,-3,2,3,12,4
1564164034352163,-31,-14,-1,5,0,-2,-12,-11
1564164034352163,-4,-11,4,11,-4,2,0,0
1564164034352637,12,8,-4,-19,-1,-1,-3,-3
1564164034352637,11,-5,-10,22,8,2,3,-2
1564164034366104,2,15,1,-6,-3,-2,1,-3
1564164034366104,-45,-11,-5,-6,-2,-3,-5,-3
1564164034367103,20,-7,4,7,0,-4,-1,0
1564164034367103,6,-3,-5,-12,-14,-4,6,-4
1564164034388599,13,3,3,3,4,2,6,4
1564164034388599,23,13,-2,5,4,-4,-10,-2
1564164034389563,2,-7,-2,-8,-11,2,-4,-1
1564164034389563,-16,2,-9,-2,8,1,-4,4
1564164034412084,-9,-19,21,27,0,0,2,2
1564164034412084,38,24,7,-12,6,8,17,7
1564164034412521,-2,-13,-27,-8,-8,-8,-2,0
1564164034412521,-19,-11,-5,-5,-9,-6,-13,-3
1564164034426492,-7,-14,-5,-1,7,3,8,4
1564164034426492,3,7,-2,1,-5,-9,-12,-10
1564164034426994,-3,10,11,16,15,6,1,-4
1564164034426994,-2,7,-1,5,-3,-1,4,-2
1564164034448987,-13,0,-12,-28,-4,2,4,5
1564164034448987,-1,-8,5,34,16,2,-1,-3
1564164034449484,9,12,6,-2,-5,-3,-1,-2
1564164034449484,-6,-15,0,-3,-2,5,2,-2
1564164034471944,-23,8,4,-8,-4,4,2,-8
1564164034471944,4,-19,-12,-14,-8,-9,-11,11
1564164034472907,-5,13,2,-15,1,1,-1,17
1564164034472907,8,9,19,31,11,4,21,11
1564164034486897,12,1,-15,-17,-17,-17,-26,-17
1564164034486897,16,4,-1,19,15,19,17,5
1564164034487387,-20,-10,14,1,-11,-6,-5,-19
1564164034487387,-24,7,-5,-4,18,4,5,12
1564164034508902,-8,-13,-13,-5,-4,-4,-5,-7
1564164034508902,58,10,-9,-8,4,14,27,28
1564164034509344,-21,-11,7,9,-9,-18,-26,-22
1564164034509344,36,6,-4,-18,-17,-12,-20,-10
1564164034531796,-53,-32,-22,7,0,-5,12,-9
1564164034531796,-56,4,9,7,16,7,-3,-20
1564164034532796,-6,-1,-4,-6,-12,-4,5,14
1564164034532796,-32,-22,-2,-10,-12,-11,-27,-18
1564164034545804,29,19,10,-3,3,0,-2,-12
1564164034545804,15,-6,-11,-14,-10,-4,4,5
1564164034561240,-1,10,-5,6,11,7,-1,3
1564164034561240,-31,8,0,0,-5,-3,-20,-22
1564164034568760,30,-8,7,32,12,2,17,30
1564164034568760,7,-19,-4,-17,-6,0,15,15
1564164034569727,-54,3,0,-21,-11,-12,-15,-23
1564164034569727,56,-10,2,34,30,21,23,18
1564164034592187,-12,23,1,-20,-22,-7,-17,-19
1564164034592187,14,9,5,-7,-4,-2,-10,2
1564164034592684,-1,-9,-9,22,7,0,12,12
1564164034592684,33,11,8,-47,-39,-14,-10,-10
1564164034614679,-6,1,-17,54,50,20,21,29
1564164034614679,16,-24,-4,-26,-19,-15,-7,13
1564164034615157,33,12,6,10,1,3,-6,-16
1564164034615157,-50,-23,5,14,18,18,26,0
1564164034628655,71,9,-5,-21,-20,-15,-10,8
1564164034628655,-33,13,0,12,-2,-10,-13,-20
1564164034629622,-50,-29,0,0,3,3,-3,1
1564164034629622,33,-7,5,-1,0,-1,21,14
1564164034652107,-5,15,5,-2,7,9,-4,-6
1564164034652107,45,8,7,7,2,3,-2,11
1564164034652572,-20,-1,-1,-12,-7,0,23,-7
1564164034652572,64,10,-15,-22,-7,-12,-32,-21
1564164034665608,-32,-8,1,-2,-7,-6,-6,2
1564164034665608,6,-1,0,-9,-16,-16,-30,-15
1564164034674032,-35,-13,-5,6,18,18,29,14
1564164034674032,-20,25,1,2,-17,-9,-4,3
1564164034690014,46,9,1,-8,9,19,34,32
1564164034690014,-60,-15,0,17,8,-7,-30,-35
1564164034691001,20,-14,-6,-9,-3,5,4,6
1564164034691001,16,-12,-10,-3,5,1,1,22
1564164034711996,74,34,10,9,-7,-12,-17,4
1564164034711996,-77,-17,-16,-38,-17,-2,9,-57
1564164034712966,57,-3,6,6,5,7,1,7
1564164034712966,-90,1,5,31,12,3,-16,-34
1564164034725444,-56,-55,-9,-8,-16,-19,-31,-32
1564164034725444,41,18,-11,-7,9,10,34,45
1564164034733928,61,24,8,-5,-5,6,9,16
1564164034733928,30,14,1,-11,-7,-2,1,8
1564164034749424,-35,0,5,8,-9,-4,-10,-8
1564164034749424,-10,-8,6,-1,3,1,4,1
1564164034750391,-49,4,2,11,-1,-3,-11,-18
1564164034750391,22,10,-1,4,-1,-4,0,7
1564164034771855,-35,-6,-3,5,14,0,-3,-18
1564164034771855,23,-10,2,-15,-2,12,22,11
1564164034772848,8,9,-13,24,3,-1,-6,3
1564164034772848,-58,-11,11,0,5,-4,-17,0
1564164034785825,16,-11,0,-26,-9,-3,24,7
1564164034785825,-3,41,5,22,9,8,14,15
1564164034793849,-50,-5,1,-26,-16,-11,-30,-24
1564164034793849,67,-33,-10,-4,0,8,14,11
1564164034809317,-74,7,-3,-5,-4,-4,-12,-29
1564164034809317,-21,-7,11,52,9,-6,-7,-2
1564164034810286,86,22,-7,-19,-5,-2,-6,18
1564164034810286,-75,-33,-10,-16,2,-1,2,-14
1564164034839724,-18,15,10,19,-2,0,-6,-13
1564164034839724,38,-19,-9,-28,-16,-4,-1,19
1564164034840231,-10,1,-1,24,10,-2,-1,5
1564164034840231,-11,7,-5,-11,5,1,6,-6
1564164034845746,58,-9,-9,-26,-9,0,-11,4
1564164034845746,-30,5,-4,15,-8,-8,-3,-33
1564164034853735,42,9,7,-10,-6,-1,1,14
1564164034853735,16,6,0,-1,-4,5,29,32
1564164034869704,-59,-15,1,2,-1,-6,-15,-18
1564164034869704,66,23,1,16,8,6,1,14
1564164034870176,-18,-26,-5,-10,-5,-3,-4,-3
1564164034870176,35,5,5,3,4,-3,-10,-6
1564164034892657,-22,9,-1,2,0,3,-7,-6
1564164034892657,-21,8,3,-15,-8,-4,2,-1
1564164034893134,69,-8,8,11,-5,-2,1,7
1564164034893134,-32,10,-14,5,13,-2,-14,-18
1564164034914586,39,0,-2,-27,-3,5,28,36
1564164034914586,-8,-19,3,21,2,3,1,6
1564164034916084,-47,15,6,2,4,2,2,-20
1564164034916084,-20,9,11,1,-7,-6,-16,-14
1564164034928069,92,9,0,8,-6,1,11,24
1564164034928069,-95,-23,-13,-10,-1,-2,-2,-18
1564164034937044,85,1,-1,2,11,6,22,30
1564164034937044,-3,-1,-8,-4,-9,-4,-2,-14
1564164034952075,-19,-6,-7,6,6,2,-1,0
1564164034952075,13,1,1,-16,-10,-13,-19,2
1564164034953513,-76,1,-4,-13,-10,-6,-24,-33
1564164034953513,19,22,3,2,-16,-1,7,9
1564164034974511,-3,-38,-12,1,16,6,17,8
1564164034974511,-3,6,4,-2,8,5,-10,-8
1564164034975979,-20,-26,-8,7,3,-4,-4,-10
1564164034975979,18,21,8,-15,-10,-7,-4,16
1564164034988010,9,15,11,2,-13,-4,-5,-8
1564164034988010,3,-7,-12,-20,2,7,4,-6
1564164034996939,-40,-15,-12,14,8,-2,-4,-4
1564164034996939,36,-10,-2,-5,-9,-9,-9,7
1564164035011908,-59,-9,2,12,2,-2,4,-12
1564164035011908,-1,9,-7,-19,2,0,-7,-5
1564164035013406,24,9,14,24,-7,-2,12,5
1564164035013406,4,5,-10,-17,8,10,11,5
1564164035041855,6,-12,-1,22,10,0,-6,6
1564164035041855,-24,-5,-1,-16,-9,0,1,-14
1564164035043846,2,-1,1,1,2,-2,-6,-3
1564164035043846,3,-18,-8,1,0,-1,13,-1
1564164035048884,8,13,7,-9,-8,1,-6,-4
1564164035048884,5,-6,4,11,5,1,1,-2
1564164035055822,-23,5,-1,-4,0,-1,-5,-10
1564164035055822,43,3,5,8,-1,-1,2,14
1564164035071853,-11,-12,-14,-21,-5,0,6,8
1564164035071853,22,7,2,7,0,1,-8,3
1564164035073790,-46,2,1,-28,-16,-3,-13,-21
1564164035073790,1,-12,4,56,37,8,18,17
1564164035094751,14,18,3,-12,-13,-3,-9,-2
1564164035094751,30,2,1,16,-5,-5,1,7
1564164035096253,1,5,-10,-40,-6,-2,-3,-1
1564164035096253,-40,-7,-4,7,4,4,-7,-20
1564164035116710,46,-7,-3,6,0,-9,-36,-1
1564164035116710,-27,5,3,-8,-3,-1,33,2
1564164035118706,-2,27,8,-11,-6,7,2,10
1564164035118706,-27,-48,-7,29,12,5,0,-2
1564164035132214,5,22,3,-20,1,1,8,10
1564164035132214,-4,-9,-1,6,4,0,-19,-9
1564164035133679,-11,-4,1,1,-9,-6,-8,-7
1564164035133679,14,2,-7,-18,-6,-4,6,2
1564164035154646,-14,-10,0,-6,-7,-4,-6,-4
1564164035154646,-7,-11,-1,5,-1,-4,-9,-5
1564164035156136,56,-2,1,14,8,6,25,24
1564164035156136,-50,10,-9,-28,-10,3,6,-11
1564164035169111,-14,-9,9,25,6,-1,-7,-10
1564164035169111,8,10,-2,-17,-6,-7,-7,1
1564164035175600,24,-1,-9,-9,-3,-2,-10,6
1564164035175600,-28,-15,-1,10,-7,-9,-2,-8
1564164035192104,10,12,2,-7,-4,1,14,7
1564164035192104,-3,-5,0,9,3,3,-2,0
1564164035193567,-11,-13,-5,-13,-1,-4,-2,-7
1564164035193567,25,23,1,-10,-19,-8,-14,0
1564164035214565,-10,0,6,31,11,1,3,-9
1564164035214565,7,-9,-11,-1,9,-1,-6,3
1564164035216026,-15,-6,-8,-6,1,3,9,4
1564164035216026,-19,8,8,-5,1,1,-21,-22
1564164035229021,15,-1,-2,-10,-2,7,28,26
1564164035229021,14,6,-5,5,-8,-8,-4,-6
1564164035235494,-28,3,-3,2,-2,-2,5,-8
1564164035235494,21,-15,2,9,5,-1,-5,2
1564164035251996,5,6,-3,-3,5,0,-17,-10
1564164035251996,-13,-12,-2,-3,-2,-2,-5,-5
1564164035253457,21,-3,-3,-15,-4,0,12,12
1564164035253457,13,17,10,7,-7,-3,-9,-2
1564164035274455,-16,-19,-13,-2,-2,-5,3,-7
1564164035274455,-1,7,-1,-6,-3,3,6,7
1564164035275914,0,-2,8,16,6,-1,-9,-8
1564164035275914,-14,-5,-12,-32,-13,-6,-9,-8
1564164035288929,-54,-9,-2,5,4,-6,-8,-8
1564164035288929,70,15,9,14,6,9,2,13
1564164035295877,26,-1,-6,5,0,-6,-2,5
1564164035295877,13,18,1,-21,5,7,25,18
1564164035311885,5,-16,1,14,4,8,14,3
1564164035311885,-37,-9,-5,3,4,0,-8,-13
1564164035313345,11,-11,-5,1,-10,-7,-15,-6
1564164035313345,5,17,11,15,10,-1,0,10
1564164035334341,1,13,2,-10,-5,-2,-5,-15
1564164035334341,8,-13,-3,0,5,-1,17,14
1564164035336302,6,7,6,13,6,3,0,2
1564164035336302,-24,4,-2,-1,-11,-2,-3,-10
1564164035348810,-45,-13,0,1,6,3,-7,0
1564164035348810,6,-18,-1,-10,-3,-2,-5,-8
1564164035355784,25,26,11,20,4,0,-2,14
1564164035355784,-18,-12,-2,-10,-8,0,10,-1
1564164035371768,21,-1,-10,-14,-11,-10,-9,0
1564164035371768,-7,7,-5,-14,-6,-7,-22,-5
