timestamp,emg1,emg2,emg3,emg4,emg5,emg6,emg7,emg8
1563815718732781,0,-1,0,0,0,1,-1,3
1563815718732781,0,-1,-3,-3,-3,-2,11,-1
1563815718736775,-2,-1,-2,0,-1,-1,-5,-2
1563815718736775,-2,-3,-4,-3,0,-9,3,-1
1563815718737774,0,0,1,2,2,6,-5,-1
1563815718737774,1,-1,3,2,2,-1,-2,1
1563815718738775,0,-2,-2,-1,-2,-2,4,1
1563815718738775,0,-2,-4,-3,-5,-7,9,2
1563815718743771,0,0,-4,-7,-4,1,-6,-3
1563815718743771,-1,-2,-3,-1,-1,0,-4,-1
1563815718758761,0,0,2,1,3,-4,-2,-1
1563815718758761,-2,0,2,3,5,7,-3,-1
1563815718764758,-1,-1,-4,-5,-8,-8,5,1
1563815718764758,0,0,0,2,-1,1,-13,-2
1563815718773753,-1,-2,-3,-3,-1,9,2,1
1563815718773753,-2,-2,0,-5,-6,-17,6,-3
1563815718788745,0,2,4,2,5,9,-24,-6
1563815718788745,-3,0,1,-1,0,1,2,-2
1563815718803735,0,-2,-3,-2,-2,-3,1,-1
1563815718803735,-1,-1,0,3,2,-1,-4,0
1563815718844712,2,1,0,-1,-1,3,7,4
1563815718844712,1,0,0,0,4,15,-6,-2
1563815718848712,-1,-1,0,-4,-4,-10,-6,-3
1563815718848712,0,-1,0,0,-3,-4,23,3
1563815718849709,-2,1,0,-1,1,-4,-11,-2
1563815718849709,0,1,1,3,1,4,-12,-2
1563815718849709,0,-1,-2,-1,2,6,2,-2
1563815718849709,0,-1,-2,-2,-1,-3,-1,-3
1563815718854706,0,-1,1,0,0,3,-1,-2
1563815718854706,-2,-1,-1,-3,-2,-9,8,3
1563815718863701,0,0,0,-1,-2,1,-2,1
1563815718863701,0,-1,-1,-3,-2,6,-13,-2
1563815718869698,1,0,-3,-2,-1,-1,5,-1
1563815718869698,0,0,1,-2,0,-4,-2,-4
1563815718885689,-2,0,-3,-3,-6,-4,12,1
1563815718885689,-3,-1,-3,-1,-3,-9,-18,-3
1563815718900681,-2,1,1,3,-1,3,2,-3
1563815718900681,-2,-3,-4,-2,-3,-10,-13,-3
1563815718915671,-1,0,-1,0,0,8,4,0
1563815718915671,-3,-2,-3,-3,-2,2,2,0
1563815718916671,-2,-2,1,-1,1,-1,-4,-2
1563815718916671,-1,0,1,2,0,2,2,1
1563815718930663,-1,-3,-3,-1,-2,0,1,-1
1563815718930663,0,-2,-3,-3,-2,-4,-7,1
1563815718930663,-3,-2,-3,-1,-1,1,-2,-2
1563815718930663,-1,-2,0,-1,-4,-12,22,5
1563815718953649,-2,-1,1,0,-3,-2,-9,-2
1563815718953649,-2,0,-2,-2,-3,-3,1,-2
1563815718954649,-2,-4,-4,-3,-6,-9,8,1
1563815718954649,-2,-2,-4,-1,-2,-5,-1,-2
1563815718975637,1,1,3,5,5,15,-15,-2
1563815718975637,-2,2,2,2,0,0,-2,-1
1563815718976636,2,-4,-4,-4,-4,-8,14,4
1563815718976636,0,1,0,-1,0,-5,-4,0
1563815718990630,-3,-3,-2,0,-2,-3,7,-1
1563815718990630,-1,-1,0,-3,0,5,-3,-2
1563815718990630,-3,-2,-2,-2,0,-9,-1,1
1563815718990630,-1,-1,-1,-2,-1,9,2,1
1563815719013615,1,-1,-1,-2,-2,-14,-1,1
1563815719013615,0,1,2,1,1,-6,3,-3
1563815719014615,-1,-1,0,0,-2,-1,-8,-4
1563815719014615,0,0,1,1,1,-5,0,0
1563815719035601,-1,-1,-1,0,2,0,3,1
1563815719035601,-1,-2,1,-4,-6,-1,12,3
1563815719036601,1,2,3,1,1,7,-16,-6
1563815719036601,-2,-4,-4,-2,-2,2,1,-2
1563815719050594,0,1,0,-3,0,-1,-6,-1
1563815719050594,0,1,3,5,3,-3,-1,-3
1563815719050594,-1,1,1,0,0,9,-16,-2
1563815719050594,-1,-1,-1,-5,-5,-3,-5,-1
1563815719080577,-2,-2,-2,0,-2,-2,3,0
1563815719080577,-1,-2,-5,-2,-1,-2,3,0
1563815719081576,-1,1,-1,-2,-2,-7,16,1
1563815719081576,-2,0,0,1,1,2,-1,-2
1563815719103563,0,1,0,-3,2,14,-27,-2
1563815719103563,-1,-2,0,1,0,-1,-2,1
1563815719104563,-1,-2,-2,3,-1,0,6,-1
1563815719104563,0,1,0,-1,1,17,-15,0
1563815719110559,-1,1,0,-1,-1,-9,17,1
1563815719110559,-1,0,-1,-2,-2,-7,0,3
1563815719110559,0,0,0,-3,3,23,-40,-8
1563815719110559,-1,-2,-1,-2,-4,-8,7,-3
1563815719133547,-1,1,0,2,-1,-5,-2,0
1563815719133547,0,-2,-4,-2,-1,9,-12,-3
1563815719134547,-2,-4,-2,-4,-4,-5,10,2
1563815719134547,0,1,0,0,-1,-3,6,0
1563815719155534,0,1,2,1,1,-2,-4,-3
1563815719155534,-1,-1,-3,2,-1,-5,2,1
1563815719156533,-2,-2,-5,-4,-2,-2,11,2
1563815719156533,-2,-2,-2,-2,-3,-6,6,3
1563815719170524,0,2,3,6,4,1,3,-1
1563815719170524,-1,-1,-1,0,-1,-7,9,0
1563815719171524,1,-1,2,-5,-3,12,-19,0
1563815719171524,0,-1,-5,-3,-3,-4,7,1
1563815719193512,-2,-5,-5,-7,-4,-11,10,4
1563815719193512,-2,-1,2,3,0,-5,-3,-2
1563815719194511,-1,2,0,3,3,-8,8,-4
1563815719194511,-1,-1,2,2,3,16,-3,-4
1563815719216499,1,0,-2,-2,-4,-7,-2,0
1563815719216499,-1,-2,-2,-2,1,11,-28,-6
1563815719216499,-1,1,0,0,-1,-14,7,1
1563815719216499,0,0,-2,-1,0,3,7,1
1563815719230490,-2,-2,-2,-1,-1,-3,-2,-2
1563815719230490,-2,-1,0,-1,2,4,6,3
1563815719231490,-1,-1,-1,0,-1,-2,5,-1
1563815719231490,1,1,-2,-1,-2,-5,-10,-3
1563815719261473,0,-2,-2,-4,-3,3,1,0
1563815719261473,-2,-1,-4,-5,-3,-10,12,2
1563815719261473,-1,2,5,9,4,4,-19,-7
1563815719261473,0,-2,-1,-2,-1,0,3,-1
1563815719276464,-2,-1,-4,-3,-5,-15,4,0
1563815719276464,0,-1,-1,-2,-1,1,-7,-4
1563815719276464,-2,-3,-3,-3,1,-10,11,5
1563815719276464,1,1,1,4,3,7,-18,0
1563815719289461,0,-3,-3,-3,1,16,-5,-4
1563815719289461,-1,-1,-2,1,2,3,1,-1
1563815719305448,-3,-3,-2,-5,-9,-12,30,7
1563815719305448,0,-1,1,1,0,-13,-30,-7
1563815719313443,0,3,3,3,5,12,7,0
1563815719313443,0,1,-1,-2,0,5,-5,-1
1563815719314443,0,-2,-2,1,-1,3,23,5
1563815719314443,-1,-3,-5,-4,-5,-15,5,1
1563815719336429,-1,-2,0,-1,-5,-15,3,-1
1563815719336429,0,0,1,-3,-3,-1,-1,-1
1563815719337429,0,0,0,0,1,9,-9,-4
1563815719337429,0,-3,0,-2,-1,3,9,3
1563815719358421,0,-1,-1,0,-1,-5,-14,-4
1563815719358421,-1,-1,1,0,-2,-1,6,0
1563815719360416,1,-2,-3,-1,-1,-9,-6,0
1563815719360416,-3,-1,1,-2,-3,-3,12,-3
1563815719381404,0,-2,0,-1,0,5,-6,3
1563815719381404,0,-2,0,1,1,-1,6,-1
1563815719382404,0,-1,-4,-2,-2,-2,-11,-1
1563815719382404,0,-1,-2,-1,0,9,-4,-1
1563815719396396,-3,2,-1,-2,1,1,-8,-2
1563815719396396,1,0,5,7,3,6,0,-2
1563815719397394,0,-1,-1,-3,-6,-8,-13,-4
1563815719397394,0,-2,-4,-2,-2,-4,7,2
1563815719409388,-2,0,-1,-4,-6,-4,1,0
1563815719409388,0,2,1,2,2,6,-2,-2
1563815719418383,-1,0,0,3,2,-1,-10,-4
1563815719418383,-2,-1,-3,-4,-4,-13,11,2
1563815719433375,1,-2,-1,-3,0,8,-1,-1
1563815719433375,-1,-1,-1,0,-2,0,6,0
1563815719435373,-1,0,-1,-3,-1,-8,-8,-3
1563815719435373,-1,-1,-1,-1,-1,6,0,-2
1563815719456361,1,0,-2,2,2,-8,13,2
1563815719456361,0,-1,-2,-6,-2,5,-17,-2
1563815719457362,0,1,-1,1,2,6,9,3
1563815719457362,-2,0,3,6,1,1,-8,-4
1563815719469354,-1,-2,-3,-4,-3,-4,-7,-4
1563815719469354,0,1,0,-1,-3,-13,10,0
1563815719478349,-2,-2,-2,-1,-3,-4,8,-1
1563815719478349,1,1,-3,-4,2,5,-8,1
1563815719493339,-1,1,2,5,1,3,1,0
1563815719493339,-3,0,2,1,-1,-1,-7,-2
1563815719495339,-1,-3,-4,-2,1,3,-2,-2
1563815719495339,0,0,0,0,0,3,9,1
1563815719516327,-1,-2,-1,-1,-6,-13,-9,-7
1563815719516327,-1,-3,-2,-3,0,-3,2,-1
1563815719517326,-2,1,4,-1,-1,-1,1,-2
1563815719517326,-1,-3,-4,-4,1,5,-12,-1
1563815719538314,-2,-3,-2,-2,-2,-1,-4,1
1563815719538314,-3,-3,-5,-5,-6,-5,-6,-1
1563815719554306,-1,-1,0,1,2,1,1,1
1563815719554306,-1,1,4,2,-3,-1,2,0
1563815719561301,0,1,0,-3,0,6,2,1
1563815719561301,2,-1,1,1,1,-4,-5,1
1563815719568296,0,-1,0,2,-1,-3,-10,-3
1563815719568296,0,-1,-2,-3,-3,0,9,0
1563815719576293,1,-1,-1,1,0,-1,6,4
1563815719576293,0,0,2,4,6,26,-59,-9
1563815719577292,-1,-1,-4,-8,-5,-3,-5,-3
1563815719577292,-1,0,0,3,0,-4,-4,-2
1563815719589285,-2,1,0,-1,-1,9,-6,-5
1563815719589285,0,-3,-5,-2,-4,-6,16,3
1563815719598279,1,-1,0,1,-4,-7,2,1
1563815719598279,1,-2,-2,0,1,18,-9,-1
1563815719613271,-1,-1,-1,0,-2,-3,9,1
1563815719613271,-1,-1,-1,-2,-5,-29,12,1
1563815719615270,1,0,-1,-2,1,13,-4,-1
1563815719615270,-2,0,-1,-3,-3,-11,1,-1
1563815719636258,1,-1,-1,-1,0,0,1,0
1563815719636258,-2,-3,-3,-2,-2,-5,10,2
1563815719637257,-2,0,1,0,4,8,-9,-3
1563815719637257,-1,0,2,4,2,0,-14,-1
1563815719649250,-1,-2,-2,-1,-1,-8,-10,-2
1563815719649250,-1,-1,0,-2,-3,-7,19,1
1563815719658246,-1,1,4,3,2,0,-8,-2
1563815719658246,-1,-2,-3,-6,-2,-2,8,2
1563815719673236,-2,-1,-3,-2,0,2,-6,-5
1563815719673236,0,2,3,3,1,3,2,-2
1563815719675235,-1,-2,-4,-2,-3,-4,7,1
1563815719675235,-2,-1,0,2,-1,-8,1,-1
1563815719696224,-1,-3,1,-2,-3,2,1,0
1563815719696224,-1,-2,-8,-4,0,0,-3,1
1563815719698223,0,0,-2,-1,-4,-12,8,1
1563815719698223,1,-1,0,0,0,3,-3,-1
1563815719718211,0,-2,-1,0,-2,-9,24,6
1563815719718211,1,2,2,2,4,9,-8,-2
1563815719720210,-2,-1,0,0,0,-4,-4,-1
1563815719720210,-2,-2,-3,-1,-6,-3,-1,-3
1563815719733202,-2,-2,-2,-3,1,0,1,-1
1563815719733202,-2,0,-4,-5,-7,-2,4,0
1563815719739199,1,0,-1,-1,-1,-4,-3,0
1563815719739199,-1,-2,-3,-2,0,-5,15,0
1563815719756189,-2,1,1,4,2,1,-7,-4
1563815719756189,-1,0,2,3,3,5,-7,-1
1563815719757189,0,-3,-2,-2,-1,-4,13,5
1563815719757189,-2,-1,-1,-3,-2,4,-22,-4
1563815719778176,-1,1,0,0,-4,-2,-15,-4
1563815719778176,0,-1,2,2,5,6,8,3
1563815719780176,0,-1,-2,-1,-2,11,0,1
1563815719780176,-2,-1,1,0,0,-7,3,1
1563815719793168,0,0,1,2,-2,0,-4,-1
1563815719793168,-1,-2,-7,-4,-6,-2,-1,0
1563815719795166,0,-1,-2,-2,2,3,0,2
1563815719795166,-1,-1,-1,-1,-1,3,-2,-1
1563815719814155,-1,0,-1,0,1,5,2,-1
1563815719814155,-1,-2,-1,-2,-1,-15,-4,-1
1563815719823150,0,0,-1,1,-2,2,1,-1
1563815719823150,-1,-2,-3,-1,0,-7,-1,-3
1563815719838142,1,1,3,1,4,8,-14,-4
1563815719838142,-1,0,3,1,0,10,-15,-6
1563815719840144,-2,1,1,1,-2,-8,-3,-1
1563815719840144,-2,1,1,0,2,20,-48,-13
1563815719861129,-2,-3,-5,-4,-5,-7,35,13
1563815719861129,3,2,1,3,5,10,-12,-3
1563815719862129,-1,-1,0,0,0,4,-11,-4
1563815719862129,-1,-1,-1,-2,-2,-13,16,3
1563815719874133,-2,-3,-6,-6,-4,-10,8,1
1563815719874133,0,-2,-2,0,3,6,3,1
1563815719884116,-1,0,-1,-1,-3,-7,7,1
1563815719884116,0,-1,0,3,0,-6,17,5
1563815719898109,2,0,-2,-2,0,0,-13,-5
1563815719898109,-1,0,-2,0,-3,-2,10,2
1563815719900107,0,-1,-2,-5,1,4,-8,-3
1563815719900107,-1,-1,-1,2,-1,-2,10,3
1563815719921096,-1,2,2,0,-2,-8,-17,-7
1563815719921096,-1,0,-2,-2,-4,-1,8,1
1563815719923095,0,1,-1,-1,1,-4,1,-1
1563815719923095,0,-3,-3,-3,-1,-2,1,1
1563815719935087,-1,-2,-3,-1,-2,2,2,-1
1563815719935087,-1,0,2,0,-2,-6,3,1
1563815719944081,0,-4,-3,-5,-8,-19,34,4
1563815719944081,2,2,2,-1,5,22,-15,-4
1563815719958074,-1,0,0,1,1,-2,4,1
1563815719958074,-1,-4,-5,-4,-3,-2,0,0
1563815719960072,-1,1,4,6,2,-4,2,-1
1563815719960072,-1,1,0,-2,-4,-11,14,2
1563815719981060,-2,-3,-2,-2,-1,2,-2,-1
1563815719981060,-2,-2,-1,2,3,0,3,-3
1563815719982060,1,-1,-1,2,4,8,-10,-2
1563815719982060,-1,1,-2,-3,-14,-14,3,2
1563815719995052,0,1,-2,-3,0,4,-8,0
1563815719995052,-1,-1,-1,-1,0,3,-13,-2
1563815720004047,-2,-4,-3,-1,1,4,-9,-3
1563815720004047,-1,-1,-1,-1,1,1,-5,-3
1563815720026034,-1,-2,-2,-2,-1,-2,2,3
1563815720026034,-2,0,2,2,1,-5,-3,-3
1563815720028033,-2,0,-2,-3,-1,6,5,2
1563815720028033,-1,0,1,1,1,8,-22,0
1563815720042036,-2,0,0,-4,-3,-10,-19,-5
1563815720042036,-1,-1,-2,-1,1,5,3,2
1563815720047023,-1,-1,-1,0,-3,-7,-6,-1
1563815720047023,1,-4,-5,-3,-1,2,17,2
1563815720055018,1,-1,2,5,3,2,-2,-5
1563815720055018,0,-1,0,-2,-2,2,3,0
1563815720064013,-1,1,-1,-3,-1,-3,-11,-2
1563815720064013,-2,-2,1,-1,0,-10,-3,-5
1563815720078005,-2,1,-2,-2,-2,2,0,-1
1563815720078005,-1,-1,-1,1,0,-5,-4,-1
1563815720080004,0,1,0,0,-1,2,-3,-2
1563815720080004,-2,-2,0,-4,-5,-9,9,4
1563815720100994,-1,-1,1,1,0,6,-3,-3
1563815720100994,0,-3,-4,-3,-5,-9,-2,1
1563815720102991,0,-2,-2,-1,2,3,-4,-1
1563815720102991,-1,0,0,0,2,-2,-2,-1
1563815720114983,-1,-2,-4,-2,-1,2,7,0
1563815720114983,-1,0,0,-3,0,9,-23,-3
1563815720123986,0,3,2,1,4,16,-21,-10
1563815720123986,-1,-2,-2,-1,-5,-30,12,1
1563815720138970,1,2,2,2,3,6,-7,0
1563815720138970,0,-2,0,0,2,-2,4,-4
1563815720139970,-1,-2,-2,-2,0,10,-11,-6
1563815720139970,-1,-2,-1,1,0,-1,-2,-4
1563815720160957,-2,-1,1,-1,0,-8,4,0
1563815720160957,0,2,1,-3,0,10,-11,-2
1563815720162956,-1,-2,-1,1,-3,-9,6,3
1563815720162956,1,0,0,-1,0,2,2,-1
1563815720174949,1,-2,-3,2,0,7,-7,1
1563815720174949,0,-1,-3,-4,-3,1,-8,1
1563815720190940,1,-2,0,-1,-3,-5,1,1
1563815720190940,-1,3,2,3,3,1,-9,-3
1563815720197936,1,-3,-3,-1,-1,1,7,2
1563815720197936,-1,0,0,0,-2,-7,19,2
1563815720205931,-1,0,-5,-5,-6,-10,12,0
1563815720205931,-2,-2,0,0,0,5,-2,-1
1563815720220922,-3,0,3,0,-3,-2,-1,-3
1563815720220922,-1,-2,-5,-2,-1,5,4,0
1563815720222922,-4,-2,0,2,1,-13,4,1
1563815720222922,-1,-2,-4,-3,-6,-22,17,3
1563815720243909,-2,-1,-3,-4,-6,-1,-8,-2
1563815720243909,-1,-1,1,-2,0,-5,8,0
1563815720244909,0,0,-1,-1,-2,4,-3,-1
1563815720244909,-3,0,-1,-2,-4,3,4,-1
1563815720258900,-2,-1,2,6,0,-5,3,-1
1563815720258900,-3,-3,-4,-4,-5,-16,8,0
1563815720259900,1,-1,-3,-2,0,7,-14,-3
1563815720259900,2,1,0,1,6,12,0,-1
1563815720280889,0,-2,-3,-3,-2,-5,-21,-2
1563815720280889,-2,-1,0,3,-1,-1,7,0
1563815720282888,-1,-1,-2,-1,-1,-5,4,1
1563815720282888,-1,-1,-3,-2,-3,-1,11,3
1563815720303875,-1,-1,1,-3,1,3,-7,-5
1563815720303875,0,1,2,0,-1,-3,3,-2
1563815720305873,0,-2,0,0,-2,-4,2,-1
1563815720305873,0,0,-2,3,3,9,-21,-2
1563815720318866,0,-2,-3,-4,-1,-3,14,2
1563815720318866,-2,-3,-4,-5,-6,-7,-1,-1
1563815720319866,-1,-1,-1,3,0,-5,3,0
1563815720319866,-1,-1,1,0,1,4,-4,-2
1563815720340854,1,-1,-2,-4,-5,-3,23,4
1563815720340854,0,-1,1,1,0,-1,-14,-3
1563815720342853,0,-1,0,2,2,3,0,2
1563815720342853,-3,-2,-3,-4,-6,-2,-4,-3
1563815720363841,-3,-3,-2,1,1,-8,-2,-2
1563815720363841,0,0,-1,0,1,2,8,2
1563815720364840,-2,-3,0,-1,-4,-17,21,5
1563815720364840,1,1,-1,-3,4,14,-16,-5
1563815720377832,1,-1,-2,-2,-2,1,12,3
1563815720377832,-2,-1,-1,2,0,-1,-11,-5
1563815720384829,-1,-2,-3,-3,-1,2,-4,-4
1563815720384829,0,-1,0,0,-3,-5,0,-1
1563815720400818,0,-1,-2,0,1,0,-5,0
1563815720400818,0,0,0,1,3,14,-18,-3
1563815720402819,-2,0,-2,-4,-4,0,-7,-3
1563815720402819,0,0,2,1,-4,-20,0,-3
1563815720423808,-1,-1,-3,-2,5,19,2,0
1563815720423808,-1,-3,-1,2,-1,-14,0,1
1563815720424805,1,0,-2,-5,-1,8,-2,-2
1563815720424805,0,-1,-2,-1,0,-10,12,1
1563815720437798,-2,-1,0,-1,-2,-12,1,-1
1563815720437798,1,0,-1,0,-1,-1,15,5
1563815720444794,-1,0,0,1,-2,0,-3,-3
1563815720444794,-2,-2,-5,-4,-1,3,3,0
1563815720459786,-2,-2,-2,-5,-7,-10,12,-3
1563815720459786,1,0,0,-5,-2,2,4,3
1563815720468780,-2,-1,0,-2,-5,-8,16,3
1563815720468780,1,-1,2,5,1,7,-10,-2
1563815720483772,1,0,-1,0,2,3,7,2
1563815720483772,-4,-2,-4,-5,-11,-22,-7,-5
1563815720490767,2,0,-1,2,5,7,-17,-3
1563815720490767,-1,-3,-1,-3,0,1,-3,-1
1563815720498764,-1,-1,-2,2,-2,-5,-9,-3
1563815720498764,1,1,2,4,6,13,5,1
1563815720504762,-2,0,0,1,0,3,7,1
1563815720504762,-2,0,0,1,0,8,-24,-5
1563815720520751,0,-1,-2,-2,1,7,-7,-1
1563815720520751,0,-1,-4,-5,-1,3,1,-2
1563815720522750,-1,1,1,3,2,11,-13,-5
1563815720522750,0,1,0,-3,-1,-11,-5,-2
1563815720543737,-1,0,1,1,0,1,1,-3
1563815720543737,-1,-2,-1,1,-2,2,2,-1
1563815720544737,0,-2,-2,-3,3,11,-24,-5
1563815720544737,-2,-2,-2,-2,-2,-2,7,0
1563815720557729,0,2,1,0,0,-6,-9,-3
1563815720557729,-2,-3,-2,-7,-2,-5,15,2
1563815720565725,1,-1,-3,2,0,-6,0,-2
1563815720565725,-1,-1,1,0,-2,-2,5,1
1563815720580717,-2,1,1,-1,-1,3,-10,-5
1563815720580717,-1,1,0,1,-2,0,-11,-3
1563815720582715,-1,-2,-2,-4,-2,-2,10,2
1563815720582715,0,0,-2,1,2,12,-3,1
1563815720603705,0,0,-1,0,-2,-18,-1,2
1563815720603705,-1,-1,-2,0,0,3,7,1
1563815720604701,0,-1,1,0,1,0,4,-1
1563815720604701,-2,-4,-7,-4,-4,-9,4,-1
1563815720617696,0,1,5,1,-2,8,-13,-1
1563815720617696,0,1,1,1,4,2,-24,-6
1563815720624691,-1,-1,0,1,0,-5,0,1
1563815720624691,0,-1,-1,-1,-1,2,3,1
1563815720640682,-1,-2,-3,0,2,9,-4,-3
1563815720640682,-1,-2,-3,-3,-4,-10,7,-1
1563815720646678,-2,-1,-2,-2,-2,-3,2,1
1563815720646678,1,0,2,1,1,0,2,0
1563815720663668,-1,-1,-1,1,0,-3,0,-1
1563815720663668,-2,-1,-2,-2,-2,0,1,-1
1563815720664670,-1,-1,2,4,-1,-2,2,1
1563815720664670,0,2,3,3,3,14,-20,-3
1563815720677660,-2,-1,1,0,-1,-9,-5,-8
1563815720677660,1,-2,-3,-1,4,10,-9,0
1563815720684656,0,-1,0,-2,-4,0,4,0
1563815720684656,-2,-1,-2,-2,-2,-10,-2,-2
1563815720700647,-2,-4,-4,-2,0,-3,6,2
1563815720700647,-2,1,2,2,1,-3,-13,-7
1563815720702648,0,0,-2,-5,-2,3,-5,-2
1563815720702648,0,-1,0,2,-1,-11,9,1
1563815720730629,0,0,-4,-4,0,4,2,2
1563815720730629,0,-1,-1,-3,-3,0,6,2
1563815720732629,0,-2,-3,-1,-2,2,6,0
1563815720732629,-2,-1,3,3,2,-6,-11,-3
1563815720745623,-3,-4,-4,-4,-3,-3,22,5
1563815720745623,-1,-3,-2,-2,-1,-2,-5,-1
1563815720747623,-2,0,0,-4,-2,-7,-4,-4
1563815720747623,0,-1,-3,-2,-2,2,1,2
1563815720768611,-3,-2,-2,1,-2,-15,27,2
1563815720768611,-1,1,-1,-3,-2,-2,-1,-3
1563815720770607,-2,-3,-1,-1,-5,-14,1,0
1563815720770607,-2,0,-3,-2,7,30,-2,1
1563815720784599,-2,-1,-2,-4,-8,-15,-6,1
1563815720784599,1,0,0,3,2,7,-10,-6
1563815720785598,0,-2,-2,-3,-1,-3,-2,2
1563815720785598,0,-1,-1,-2,-2,1,17,2
1563815720805590,1,1,0,0,4,4,-17,-2
1563815720805590,-2,-1,-1,0,0,-1,1,1
1563815720807590,-2,-1,-1,-3,-6,-1,-5,-1
1563815720807590,-2,-3,-1,-1,-4,-13,-3,-3
1563815720820597,0,0,0,0,2,17,3,1
1563815720820597,-1,0,-2,-4,-6,-18,17,0
1563815720822577,0,0,-2,4,5,6,-10,-2
1563815720822577,0,-1,-3,-2,-2,-2,11,1
1563815720843584,-1,0,1,3,-1,-1,-10,-1
1563815720843584,-1,-2,0,-2,-1,-1,-3,0
1563815720845564,-1,0,0,0,3,13,-14,-3
1563815720845564,-3,1,-1,-3,-2,-16,2,-2
1563815720857557,-2,2,2,2,0,2,-11,-5
1563815720857557,-1,0,-2,1,1,2,3,2
1563815720866552,-1,-2,-5,-4,-3,-13,18,1
1563815720866552,-1,-1,0,-1,-3,-6,-6,0
1563815720880547,0,1,0,1,3,22,-28,-9
1563815720880547,0,-1,0,1,-1,-7,0,-1
1563815720882544,1,-3,-2,-1,-2,-4,12,4
1563815720882544,-1,0,-2,0,1,2,-8,-2
1563815720903531,-1,-1,0,-1,-2,-2,13,5
1563815720903531,-1,1,1,2,3,8,-17,-2
1563815720905530,0,-5,-5,-6,-4,-1,4,3
1563815720905530,1,2,3,3,1,3,-4,-2
1563815720925538,0,-1,-3,0,-1,-4,6,-1
1563815720925538,-1,-2,0,1,-1,0,-12,-2
1563815720927517,-1,-1,-1,-1,-3,0,0,-1
1563815720927517,1,-1,-4,-3,-1,-1,2,1
1563815720940510,1,-1,0,-2,1,8,7,1
1563815720940510,0,1,-2,1,-2,0,-12,-3
1563815720948505,-1,1,0,0,1,11,-9,-1
1563815720948505,-2,-2,-1,0,-1,1,-1,-1
1563815720963496,-1,-2,-2,-3,-1,0,0,1
1563815720963496,-1,-2,-2,-3,-2,10,-12,-2
1563815720965497,0,1,2,1,-1,-3,-4,-1
1563815720965497,-1,2,4,3,0,4,0,-4
1563815720977489,0,1,-1,0,-1,-7,-5,0
1563815720977489,-1,-3,-4,-4,-2,-8,7,2
1563815720986484,-3,-1,-2,-3,-3,-3,-3,-3
1563815720986484,0,-1,-5,-3,-3,0,-4,-1
1563815721001476,-2,-2,1,1,-1,-1,5,0
1563815721001476,-1,-1,0,2,-2,1,13,3
1563815721002477,0,-2,-1,-2,1,-4,-4,-1
1563815721002477,0,-1,-1,-1,0,3,-4,-4
1563815721024465,-1,-3,-4,-1,-5,-19,-2,0
1563815721024465,-1,-1,-4,-2,-1,-2,7,-1
1563815721046449,-1,1,-1,-1,-2,1,2,-1
1563815721046449,0,-2,0,0,-2,-9,27,8
1563815721047448,2,1,2,1,5,22,-12,-1
1563815721047448,-3,-2,-2,0,0,-6,-1,0
1563815721049447,-1,0,0,0,-5,-4,-3,-2
1563815721049447,-1,-2,-2,-1,-3,-4,5,0
1563815721061440,-2,0,3,1,-2,-6,8,0
1563815721061440,-2,-1,1,0,3,9,-17,-4
1563815721062440,0,1,0,6,3,5,2,1
1563815721062440,-2,-4,-3,-3,-2,3,-8,-3
1563815721083431,-3,-2,-4,-2,-1,3,1,-2
1563815721083431,-2,0,1,0,-1,-12,1,0
1563815721085427,-2,-1,0,-3,0,-3,-8,-6
1563815721085427,1,0,-2,-3,1,1,-16,0
1563815721097423,0,-2,-1,-1,-1,2,4,0
1563815721097423,-1,-2,0,-1,-1,-3,5,-2
1563815721106414,-3,0,1,2,1,-5,-1,0
1563815721106414,0,-2,0,-2,2,3,13,1
1563815721121407,0,2,-2,-1,0,4,-47,-11
1563815721121407,0,1,0,-1,-3,2,-1,-2
1563815721122406,0,-2,1,0,5,11,-8,-1
1563815721122406,-1,-1,-1,-3,-5,0,-5,-3
1563815721143394,-1,-1,-2,-1,-1,-4,18,3
1563815721143394,-1,0,2,0,-1,-6,-17,-4
1563815721145393,0,-2,-2,-1,-1,0,-4,-1
1563815721145393,-1,-2,-2,-1,-1,-2,2,1
1563815721166382,-3,-1,0,0,-4,-17,7,0
1563815721166382,1,1,2,3,2,25,-2,-1
1563815721167381,0,0,1,2,2,-1,-19,-8
1563815721167381,0,-1,-4,-1,1,-1,-3,1
1563815721181371,-1,-2,0,-4,-5,-11,-1,0
1563815721181371,-1,-1,-2,-2,-5,-4,14,0
1563815721182371,0,-2,-1,0,-2,-4,4,2
1563815721182371,-2,2,2,2,2,3,-3,-5
1563815721204377,-1,0,-3,-1,1,-6,-4,-1
1563815721204377,-1,-2,-3,-3,-2,-3,13,3
1563815721205358,1,1,-2,-3,2,24,-23,-1
1563815721205358,-1,-1,1,2,-2,-10,-2,-1
1563815721226365,2,1,-1,-3,1,17,7,3
1563815721226365,-3,-2,0,2,0,-6,-11,-3
1563815721227344,-1,0,0,-1,-2,-9,12,-1
1563815721227344,-1,-3,-2,1,-3,1,-4,-2
1563815721248332,-1,-1,2,2,5,9,-2,-1
1563815721248332,1,-1,0,-1,-3,-6,7,1
1563815721250332,-4,-1,-1,-2,-6,-11,4,2
1563815721250332,-1,0,-2,-5,-4,-5,-2,-1
1563815721263343,1,-3,-4,-1,-4,-4,17,0
1563815721263343,-1,0,-2,-1,5,8,-19,-5
1563815721265323,0,-1,0,1,-1,-11,3,1
1563815721265323,-1,0,-1,2,0,-1,0,0
1563815721286330,-3,-4,-2,-2,-4,-17,20,2
1563815721286330,-2,-1,-1,-1,-1,1,4,-1
1563815721288310,-3,-2,-2,-2,0,-4,-3,-1
1563815721288310,-1,0,1,-1,-3,-4,-4,-3
1563815721300306,0,1,-1,-1,-1,2,2,0
1563815721300306,-3,-1,-2,-2,-6,-6,14,-2
1563815721331286,-2,0,-3,-2,-3,-7,-2,0
1563815721331286,-1,-2,0,0,1,-15,12,1
1563815721332292,1,-3,-2,-1,1,5,-15,-3
1563815721332292,0,-1,-3,-1,-2,-4,12,3
1563815721338281,-1,-2,0,0,0,4,2,0
1563815721338281,-2,0,1,-2,-2,-4,6,-1
1563815721346295,-1,0,1,-1,-3,-1,-8,-4
1563815721346295,-1,-1,-3,-2,-1,-2,-2,2
1563815721347280,-1,-2,-3,-1,-2,-7,6,-1
1563815721347280,0,0,-3,-1,3,17,0,0
1563815721360288,-3,-2,-3,-8,-6,-6,0,0
1563815721360288,0,-1,1,1,-1,0,6,0
1563815721367284,1,0,1,3,0,-9,1,1
1563815721367284,0,1,0,0,0,5,-16,-4
1563815721383274,0,1,-1,1,2,-2,-3,-2
1563815721383274,-2,-3,-3,-3,-4,1,0,0
1563815721385254,-1,-2,-3,-1,-2,-12,0,-1
1563815721385254,2,2,4,3,4,12,-23,-5
1563815721406243,-2,-2,-1,0,-1,1,-1,-1
1563815721406243,0,1,2,-1,0,1,8,1
1563815721407242,-1,-2,-1,-3,-5,8,-21,-3
1563815721407242,-3,-2,-4,-2,-1,1,5,0
1563815721420233,-1,-2,-5,-2,-2,-1,-10,-1
1563815721420233,-1,-1,0,2,2,2,1,0
1563815721427231,-1,1,-2,-1,1,7,8,3
1563815721427231,-2,0,-1,-2,-10,-9,0,-3
1563815721443220,-1,1,1,2,2,-1,-2,-1
1563815721443220,0,-2,-4,-1,1,-8,0,-2
1563815721445220,-1,2,2,0,3,8,-29,-17
1563815721445220,0,-2,-2,-2,-1,-7,2,0
1563815721466208,0,0,0,-1,-1,3,4,0
1563815721466208,0,1,0,1,1,2,-5,-2
1563815721472211,-1,-2,0,-2,-4,-9,6,1
1563815721472211,-1,-1,-2,-1,-2,-8,17,5
1563815721480204,1,0,0,3,2,3,-15,-1
1563815721480204,-2,-1,-2,-3,-3,-4,-9,1
1563815721487215,0,-2,-3,-1,0,-2,17,5
1563815721487215,-1,-2,-3,-4,-8,-5,8,1
1563815721503187,-4,-4,-4,-5,-9,-26,19,0
1563815721503187,1,0,2,2,0,2,1,1
1563815721505186,0,0,1,3,1,3,3,1
1563815721505186,0,-2,-1,1,5,1,-13,-3
1563815721526174,0,0,-1,-4,-7,0,5,-1
1563815721526174,-2,-1,-2,-3,-1,-5,-3,-1
1563815721527178,-2,0,0,3,0,2,11,0
1563815721527178,-1,-2,-1,0,3,1,8,1
1563815721541166,-1,1,2,2,3,9,-4,-3
1563815721541166,-2,-2,-2,-3,-3,-11,-4,-1
1563815721548161,-1,-3,-4,-6,-4,-10,5,3
1563815721548161,-1,0,-1,-1,2,12,-3,0
1563815721563153,1,-1,-3,2,-1,7,-10,-3
1563815721563153,-1,-1,-3,-1,-3,-8,-2,-1
1563815721565152,-1,0,2,1,1,2,8,-1
1563815721565152,0,-3,-2,0,-2,-1,-2,-1
1563815721585143,-1,-2,-3,-2,0,-8,14,6
1563815721585143,2,-1,0,-2,-1,2,6,1
1563815721586140,-2,-3,-2,-3,-6,-3,-3,-1
1563815721586140,0,-2,-1,-3,-4,0,-2,-2
1563815721601131,1,0,0,1,-2,-1,-6,-1
1563815721601131,-2,-2,-2,-2,1,-2,-7,-2
1563815721608128,0,-1,0,0,5,10,2,-1
1563815721608128,0,0,0,-2,-5,2,-4,-1
1563815721623119,0,-2,-1,-2,-3,-6,-7,-2
1563815721623119,2,0,-1,-2,1,1,7,2
1563815721623119,-2,-2,-3,-3,-3,3,-21,-4
1563815721623119,0,-2,-1,0,-2,-4,3,-1
1563815721645106,-1,-1,5,6,4,-6,3,-3
1563815721645106,0,1,1,0,0,4,-19,-6
1563815721646105,-2,0,1,0,2,8,12,-1
1563815721646105,0,0,-1,2,2,-2,-3,1
1563815721660097,-2,-2,-3,-4,-4,1,-3,-1
1563815721660097,-2,0,-2,-3,-3,-5,4,0
1563815721668092,-1,0,1,3,-1,-2,1,-2
1563815721668092,-2,-2,-2,-2,-2,-3,-1,-3
1563815721691082,-1,0,-2,-1,-2,-5,-13,2
1563815721691082,0,0,2,4,4,16,2,2
1563815721692081,0,-1,-2,-3,0,0,-12,-2
1563815721692081,-1,-1,-2,0,-1,-10,3,-2
1563815721705075,1,0,0,-2,0,5,7,2
1563815721705075,2,0,-2,0,0,2,-13,1
1563815721706070,0,-2,1,4,-1,-6,5,-1
1563815721706070,0,-1,-1,0,2,1,-7,-3
1563815721720062,-2,-1,-2,-3,1,0,-3,-3
1563815721720062,-1,-1,2,2,-2,0,12,2
1563815721728057,-1,-2,-5,-7,-5,-6,-5,0
1563815721728057,-1,-1,-1,-2,0,2,0,-1
1563815721743069,-1,-1,-1,-3,-6,1,-9,-1
1563815721743069,-2,-1,-1,-2,-3,-5,5,-1
1563815721743069,0,-2,-4,0,0,-4,9,3
1563815721743069,0,1,2,0,1,11,-1,0
1563815721765039,-1,1,1,0,-6,-17,2,1
1563815721765039,-1,-1,-5,-2,-2,-3,0,-3
1563815721766039,-2,0,0,-1,-2,-2,-5,0
1563815721766039,-1,0,-1,-3,-1,1,4,-1
1563815721780028,-1,-3,-4,-1,3,6,21,2
1563815721780028,-1,-1,-1,0,-3,-5,-5,-5
1563815721788024,-1,-4,-2,-2,-2,-21,7,-2
1563815721788024,0,0,2,1,1,7,-5,1
1563815721803016,1,1,1,1,1,2,3,0
1563815721803016,0,-1,-2,-1,2,3,6,2
1563815721804015,-1,0,0,1,-2,-2,-21,-4
1563815721804015,-3,0,0,0,-3,-2,-7,-5
1563815721825022,0,-2,-1,-4,-1,3,-9,-3
1563815721825022,-2,-1,-1,-1,4,0,0,0
1563815721826002,0,0,0,-2,-1,2,28,8
1563815721826002,0,-3,-4,-3,-3,-7,-12,-1
1563815721839994,-1,-1,-1,0,2,15,-1,-2
1563815721839994,-1,-1,-1,0,-4,-17,0,0
1563815721854990,0,0,1,0,-1,5,2,0
1563815721854990,-1,-2,0,-2,-2,-6,3,3
1563815721862984,-2,-1,-2,-1,1,-1,4,2
1563815721862984,0,0,0,-4,-3,1,7,-3
1563815721863980,-2,2,-1,0,0,3,-21,-4
1563815721863980,-1,0,-1,0,-1,-12,-3,-3
1563815721885972,1,0,0,2,4,20,-21,-4
1563815721885972,-1,-2,-3,-2,-2,4,1,0
1563815721892963,-1,0,-5,-5,-5,3,-1,-2
1563815721892963,-1,1,-2,-1,0,0,0,-2
1563815721899960,0,-1,-1,-1,-4,-11,-1,-1
1563815721899960,-1,0,3,4,2,7,1,-2
1563815721907955,1,-2,0,1,1,-1,-18,-1
1563815721907955,-2,-4,-5,-4,-1,-1,3,1
1563815721922947,-1,1,0,1,-1,-8,13,1
1563815721922947,-1,1,2,2,-1,-4,-11,-5
1563815721923946,1,-1,-2,-3,-1,6,9,1
1563815721923946,-1,0,-1,0,0,-1,0,0
1563815721944934,-2,1,0,-3,2,4,4,0
1563815721944934,-2,0,-2,0,-3,-8,-1,3
1563815721945933,-1,2,0,1,2,-4,4,-2
1563815721945933,-2,-1,0,-1,-2,-3,10,0
1563815721959925,1,0,0,2,1,0,-4,-3
1563815721959925,-1,-4,-3,-3,-8,1,2,2
1563815721967920,1,0,-1,-2,2,1,-4,-2
1563815721967920,1,0,-2,-1,-2,6,-12,0
1563815721982931,0,0,-1,-1,0,-5,0,0
1563815721982931,-2,-1,-3,-6,0,-5,6,-1
1563815721983930,-1,1,1,2,1,0,-12,-3
1563815721983930,0,1,0,2,-2,-3,1,-2
1563815722004900,-2,-4,-4,-4,-8,-16,19,1
1563815722004900,-1,-1,1,1,0,-6,-5,-2
1563815722005899,0,-1,-2,-1,-2,-1,7,2
1563815722005899,-1,1,3,0,1,-1,2,-2
1563815722019890,-1,-2,-3,3,2,6,-1,0
1563815722019890,0,-2,2,3,1,-5,-4,-2
1563815722027889,-1,-1,0,-1,-2,-1,1,0
1563815722027889,0,-2,-1,-1,-2,3,1,1
1563815722042878,-2,-2,-3,-4,-5,-3,18,3
1563815722042878,0,-1,-5,-5,-5,-4,9,1
1563815722043877,0,2,4,5,5,14,-27,-8
1563815722043877,-1,0,-1,0,0,1,-5,-2
1563815722064867,0,-1,1,0,0,2,-3,-1
1563815722064867,-2,0,-3,1,-1,-11,9,3
1563815722065866,1,-5,-3,-1,1,3,10,0
1563815722065866,-1,0,-2,-6,-8,-7,12,1
1563815722088853,-1,0,2,-1,-3,-6,-19,-5
1563815722088853,-1,-2,-2,-4,0,4,-6,-1
1563815722088853,-2,-1,-2,-1,-3,-6,9,0
1563815722088853,0,-2,0,1,1,2,-5,-3
1563815722102843,0,0,-2,-2,3,-1,-12,-1
1563815722102843,-2,-1,-1,-1,-1,8,-6,-2
1563815722109838,0,-1,-2,-3,-1,-7,13,3
1563815722109838,-1,1,2,3,1,-4,0,1
1563815722134823,-2,1,2,2,0,-3,10,-3
1563815722134823,0,1,1,-1,1,6,-11,-1
1563815722134823,-3,-3,-3,-1,-2,6,3,1
1563815722134823,-1,-3,-3,-3,-2,-14,0,0
1563815722157812,0,-2,0,-2,0,5,-7,-1
1563815722157812,-2,0,-1,-1,0,-1,-3,-3
1563815722157812,-1,1,1,0,-1,-3,1,0
1563815722157812,0,-2,-2,-2,-1,2,-1,-1
1563815722162812,0,-2,-1,-3,-3,2,-2,-2
1563815722162812,1,-2,-1,0,-2,-13,20,4
1563815722169804,-1,-2,-6,-4,-3,-7,7,1
1563815722169804,-2,0,-1,2,-1,-5,8,0
1563815722184796,-1,0,-2,-2,2,-4,-15,-2
1563815722184796,0,1,1,1,-2,9,5,0
1563815722185795,-1,-1,-1,-4,-3,-7,-1,-2
1563815722185795,0,0,-2,-1,-1,5,8,-1
1563815722208782,-1,-1,1,2,0,-14,-11,-2
1563815722208782,0,-1,-1,-2,2,7,-10,-3
1563815722208782,0,0,0,1,0,-4,3,1
1563815722208782,-1,-1,-3,-3,1,6,-5,1
1563815722222776,-2,1,-2,2,-2,6,1,0
1563815722222776,0,-2,-1,1,-1,2,-29,-5
1563815722223774,0,-1,0,-1,-2,6,1,-1
1563815722223774,0,-3,-2,-1,1,-4,-4,-2
1563815722244763,-2,2,1,1,1,5,0,-1
1563815722244763,0,-2,-1,-1,0,1,5,1
1563815722245761,1,-1,0,1,2,7,9,2
1563815722245761,0,2,2,-2,-3,-5,-13,-4
1563815722268768,0,-1,-2,-3,1,10,-14,-1
1563815722268768,-1,-1,-2,0,-2,-3,-7,0
1563815722269747,0,1,-2,-1,-1,-2,-4,-3
1563815722269747,-1,0,0,1,-1,-2,0,-4
1563815722282739,-1,-3,-2,-1,-2,0,9,-3
1563815722282739,-2,-3,-2,1,2,-8,11,1
1563815722283739,0,0,0,-3,-4,10,-9,1
1563815722283739,1,-2,-2,0,-1,1,2,2
1563815722305728,0,1,0,1,-1,-10,-4,-4
1563815722305728,-1,1,0,1,-1,1,-2,-1
1563815722305728,-3,-2,-3,-2,-1,-4,7,1
1563815722305728,-3,-2,-3,-2,-3,-8,-1,-2
1563815722328714,1,-3,-4,-6,-4,2,-1,2
1563815722328714,0,2,1,0,2,4,-3,-1
1563815722329712,-3,0,1,4,-4,-8,2,0
1563815722329712,0,-1,-2,-3,-2,-1,6,0
1563815722342706,0,-1,-1,-1,0,5,-8,0
1563815722342706,1,-3,-1,-3,-1,3,1,-1
1563815722343706,0,0,-1,1,4,6,3,0
1563815722343706,1,-1,1,0,-3,9,-21,-3
1563815722365694,-1,-1,-1,-2,0,-8,6,-1
1563815722365694,-1,-3,-4,-3,-2,-4,3,1
1563815722366692,-1,1,2,3,4,0,-6,-4
1563815722366692,-1,0,2,2,1,-5,10,0
1563815722388678,-2,-1,-1,-2,-2,7,-10,-3
1563815722388678,-1,1,-3,-1,-4,-9,2,-3
1563815722389678,0,-1,1,0,-1,0,-5,-1
1563815722389678,-2,-1,-4,-5,0,9,-5,-3
1563815722410667,-2,-1,0,4,2,-15,1,0
1563815722410667,0,-2,0,-1,1,2,5,0
1563815722411666,-1,-1,-1,-2,-1,-10,-10,-2
1563815722411666,-1,0,-2,-3,-5,-4,16,3
1563815722425658,0,-2,1,-1,0,10,4,2
1563815722425658,-1,0,-1,-2,1,4,-8,-3
1563815722425658,-2,-1,-4,-2,-5,-15,20,1
1563815722425658,-1,-3,-1,0,2,6,-3,-1
1563815722448646,1,-1,-1,0,0,-8,2,-1
1563815722448646,1,1,1,2,-2,-7,0,0
1563815722449643,0,-1,0,-1,0,9,-16,-1
1563815722449643,-2,-3,0,-1,-1,-6,-5,-2
1563815722463637,-1,-1,-8,-1,-1,-6,20,3
1563815722463637,-1,0,0,-2,-2,-3,-1,0
1563815722470633,-1,-2,-2,-4,-4,-10,-1,-1
1563815722470633,0,-2,-1,0,1,-7,-3,-2
1563815722485642,1,0,3,-1,1,18,4,-1
1563815722485642,0,-1,-1,1,0,-9,-8,-3
1563815722485642,0,-2,-3,-8,-12,-8,-4,2
1563815722485642,-2,0,-1,4,0,-3,-2,-1
1563815722508614,-3,1,0,1,2,0,-2,-2
1563815722508614,-1,-1,-3,-3,-4,5,2,0
1563815722509610,-2,-2,0,3,7,6,1,0
1563815722509610,0,0,-1,-3,-3,-2,4,1
1563815722523602,-1,-2,3,-1,-5,-5,-7,0
1563815722523602,-2,0,0,0,3,5,-3,-2
1563815722523602,0,-3,-2,-2,-1,-3,6,0
1563815722523602,0,0,1,-1,-1,4,-4,0
1563815722545590,-3,-2,-2,-1,0,-14,3,-2
1563815722545590,0,-1,-1,-2,-1,2,-10,-3
1563815722545590,-1,1,0,-1,-2,4,3,-1
1563815722545590,0,-2,-1,0,-3,-3,14,3
1563815722568575,-1,1,1,-1,-1,-1,4,3
1563815722568575,-1,-2,-3,-2,-3,-7,4,1
1563815722569575,0,-2,-1,0,3,10,-9,-4
1563815722569575,0,-1,-2,-1,3,8,-7,-2
1563815722582568,0,-1,-3,-1,-5,-16,-1,2
1563815722582568,-1,-1,2,1,-1,9,-2,-2
1563815722583574,-1,-1,-1,-1,-1,-4,-1,0
1563815722583574,-2,0,0,-2,-2,-3,-4,-6
1563815722605555,0,-2,-3,-2,-3,1,-1,-1
1563815722605555,0,0,-1,1,3,3,2,0
1563815722605555,0,-1,-1,-1,1,1,0,-3
1563815722605555,0,-2,0,2,3,0,-3,-2
1563815722635538,0,1,-1,-1,-6,11,-17,-1
1563815722635538,-1,0,-2,-2,-1,2,-7,-1
1563815722636538,-1,0,2,1,-2,-6,-5,0
1563815722636538,0,1,0,0,0,1,-1,-1
1563815722644532,-2,-1,-2,0,3,-2,1,-1
1563815722644532,-2,0,0,-1,-2,-2,0,0
1563815722645531,-1,1,-3,-3,0,12,-39,-12
1563815722645531,-3,-1,0,2,-1,9,-12,-5
1563815722665521,-1,-1,1,0,2,4,4,-1
1563815722665521,1,-1,-3,-5,-3,2,-5,-2
1563815722666520,0,0,-1,-4,2,12,-2,2
1563815722666520,-1,-1,1,4,1,-3,6,3
1563815722688509,-1,-1,0,1,2,3,-7,-3
1563815722688509,-1,-1,-3,-4,-7,-4,2,-1
1563815722689507,-2,-1,-2,1,-1,-7,11,2
1563815722689507,1,-1,-2,-2,0,-7,-12,1
1563815722711494,-1,-1,1,0,2,3,4,-1
1563815722711494,-1,-1,0,0,0,-6,5,0
1563815722712495,0,1,0,0,-4,-6,10,0
1563815722712495,-2,-3,-2,-4,-4,0,0,1
1563815722725485,-2,-1,-1,2,0,-3,-4,-3
1563815722725485,-1,0,0,-1,0,1,-2,-2
1563815722732482,-2,-1,-1,2,0,1,4,0
1563815722732482,1,2,4,1,3,2,-2,0
1563815722748473,0,0,-1,-8,-6,-8,-6,-2
1563815722748473,-2,-1,-1,-1,-1,0,1,1
1563815722749472,-3,-1,-4,0,0,-6,0,-1
1563815722749472,-2,0,-4,-3,-4,-13,14,0
1563815722762465,2,2,0,1,2,13,-18,-3
1563815722762465,0,-2,1,1,2,13,-11,-2
1563815722770461,-2,-4,-2,-2,1,6,17,4
1563815722770461,0,2,1,0,-3,-13,-2,-1
1563815722785453,-1,-1,-2,-1,-1,-10,20,2
1563815722785453,-2,-1,-2,-1,2,2,3,0
1563815722786451,-1,0,2,1,-3,-10,-11,-2
1563815722786451,1,-2,-2,0,0,9,4,-1
1563815722808440,-1,-3,-3,-3,-3,-7,7,2
1563815722808440,0,-1,0,1,-3,-6,0,0
1563815722809437,1,0,-1,1,3,-4,12,1
1563815722809437,-2,-3,-5,-2,-4,-3,-2,1
1563815722822438,-1,1,3,3,1,0,-7,-2
1563815722822438,-1,-1,0,0,1,-2,4,-1
1563815722830458,-1,0,-1,-1,1,-1,-7,-1
1563815722830458,0,-2,-2,-4,0,4,1,-3
1563815722846452,0,-4,-5,-5,-5,3,18,6
1563815722846452,-2,0,1,-1,1,7,-49,-10
1563815722846452,-1,-1,1,2,0,-4,-4,-4
1563815722846452,-1,-2,-1,0,3,13,-12,-2
1563815722868465,-2,-1,-1,-2,-3,-7,10,2
1563815722868465,3,0,0,-1,-2,-2,8,1
1563815722869405,-2,-1,0,1,-3,-9,-6,-1
1563815722869405,-2,1,1,-1,1,8,-2,-4
1563815722882404,-1,-1,0,0,0,-2,-6,-4
1563815722882404,-2,-2,-4,0,2,0,12,2
1563815722890433,-1,-1,0,-1,0,0,-3,-2
1563815722890433,0,-1,-1,-3,-11,-14,9,1
1563815722906384,1,2,-1,1,2,5,4,2
1563815722906384,-2,0,-3,-3,-1,-6,-10,-5
1563815722906384,0,-2,0,0,-4,1,9,1
1563815722906384,-3,1,0,-1,2,-5,-1,-1
1563815722928371,0,-3,-1,0,-1,0,0,-1
1563815722928371,-2,-2,-1,-4,-5,-6,8,0
1563815722929377,-1,-2,-4,-4,-3,-3,-3,-1
1563815722929377,0,-1,1,5,3,4,-5,-2
1563815722942362,-2,-1,-1,1,0,2,-4,-4
1563815722942362,-1,0,-1,-1,-2,-9,13,4
1563815722950400,-1,-1,0,-3,-3,1,-7,-5
1563815722950400,-1,1,1,-2,-1,0,3,-1
1563815722966348,-2,0,1,1,0,-8,-3,-3
1563815722966348,-1,-2,-2,0,4,9,0,1
1563815722966348,0,1,1,-2,-3,0,-2,1
1563815722966348,0,-2,-4,-5,-9,-7,5,-1
1563815722988395,0,0,3,4,2,1,-5,-1
1563815722988395,-1,-1,-3,-1,1,-7,5,0
1563815722989335,-1,-1,-3,-2,3,10,-3,-1
1563815722989335,-2,1,0,1,-5,-1,4,-1
1563815723011345,-1,-1,-2,-1,0,-3,-13,-3
1563815723011345,-1,-1,-1,0,-3,-1,4,2
1563815723011345,1,-2,-3,0,-3,-6,3,2
1563815723011345,1,-1,-3,0,4,6,2,2
1563815723024355,1,-2,-3,-9,-6,2,1,0
1563815723024355,-2,-1,1,0,6,4,-2,-4
1563815723034308,-2,-1,-1,0,0,-4,1,0
1563815723034308,-1,-1,1,-1,-6,0,-2,-3
1563815723048300,0,-1,-3,0,1,0,1,1
1563815723048300,1,1,2,0,0,-1,-4,-3
1563815723063295,0,-1,0,0,1,-2,0,-1
1563815723063295,-1,-1,-2,-4,-2,-1,-3,-1
1563815723070289,0,1,0,1,2,7,-21,-4
1563815723070289,-2,1,-1,-1,-3,1,5,0
1563815723078292,-2,1,2,1,0,-7,-9,-7
1563815723078292,-2,-1,-2,2,3,2,0,0
1563815723085283,-3,0,-2,-4,-2,3,-2,-1
1563815723085283,-1,0,1,3,1,-5,-6,-3
1563815723092276,-2,-2,-1,0,1,-4,7,0
1563815723092276,0,-1,3,2,4,7,-20,-2
1563815723116300,0,-1,-1,-3,-2,4,6,-1
1563815723116300,-2,-3,-4,-3,-7,-18,-4,-2
1563815723117265,0,-1,0,1,0,4,10,2
1563815723117265,-1,-2,-3,-6,-6,-12,-2,-1
1563815723131256,-1,0,0,1,1,4,6,0
1563815723131256,0,1,2,1,-2,-1,1,-1
1563815723132253,0,-1,-2,-2,-1,3,0,0
1563815723132253,1,-1,-1,3,4,3,3,0
1563815723146245,-4,0,-1,-4,-4,-12,-11,-6
1563815723146245,-1,-1,-3,0,2,11,7,1
1563815723147244,-2,-1,-1,-1,-5,-8,-2,-2
1563815723147244,1,0,-2,-4,-3,4,8,1
1563815723168234,0,-3,-1,0,-3,-16,23,3
1563815723168234,-2,-2,-5,-3,-1,4,-1,-2
1563815723170234,0,0,-1,0,3,6,3,1
1563815723170234,0,-2,-2,0,1,-4,-7,-2
1563815723191280,0,1,3,0,1,3,-4,0
1563815723191280,0,0,1,1,0,2,2,-1
1563815723197215,0,-1,0,1,-4,0,-2,0
1563815723197215,-1,0,0,-2,-3,-5,0,-1
1563815723205210,-1,0,-3,-3,-1,2,-2,-2
1563815723205210,0,-1,-1,-3,-6,-14,18,1
1563815723212246,-3,0,0,-2,-1,-5,1,-5
1563815723212246,-2,-1,-1,-2,-2,-1,2,-1
1563815723228211,-1,-1,-2,3,5,15,-9,-2
1563815723228211,0,0,1,-1,-5,-13,-12,-1
1563815723230217,-2,0,1,-2,0,1,8,0
1563815723230217,0,-1,-2,0,0,-6,-3,0
1563815723250225,-1,-1,-2,0,-2,7,12,1
1563815723250225,0,0,-2,1,0,1,-4,2
1563815723258224,0,1,-2,-1,5,7,-4,-1
1563815723258224,-1,-1,-1,0,-3,-10,-1,1
1563815723265236,1,-2,0,-2,-2,-3,-15,-3
1563815723265236,-1,-2,-3,-4,-4,-4,3,-1
1563815723272171,-1,-1,-1,1,1,10,-13,-1
1563815723272171,0,-1,-2,0,6,4,4,0
1563815723288167,-1,-3,-2,0,-6,-12,0,-1
1563815723288167,0,-2,2,0,4,8,-6,-1
1563815723290162,-1,0,3,-2,-4,-4,-1,-3
1563815723290162,-1,-1,-6,-7,-6,1,1,0
1563815723326146,-3,0,1,1,1,-3,-7,-1
1563815723326146,0,1,1,0,3,1,0,-3
1563815723335136,0,-2,-1,4,1,0,1,3
1563815723335136,-1,-1,0,0,-1,-4,-5,-3
1563815723336136,-1,-1,-1,-4,-3,-7,5,-1
1563815723336136,0,-2,0,1,3,15,-17,-4
1563815723339134,1,0,-2,-3,0,4,-16,-4
1563815723339134,0,1,2,0,0,22,-11,-3
1563815723348189,-2,0,-1,0,2,-9,-3,-3
1563815723348189,-2,-2,-1,0,-2,-2,4,1
1563815723350130,-1,-1,-1,-2,-3,-6,-3,0
1563815723350130,2,-2,2,0,3,-1,2,2
1563815723371176,0,-1,-1,-1,-2,6,3,3
1563815723371176,-1,-1,-2,-2,-1,-1,3,1
1563815723372119,-2,-5,-4,-4,-11,-24,16,2
1563815723372119,-2,0,-1,2,4,0,8,-2
1563815723385168,-1,-2,-2,0,1,-5,3,0
1563815723385168,-1,-2,-1,-3,-3,9,-6,-3
1563815723392105,0,0,-2,-5,-2,0,3,0
1563815723392105,0,-2,-2,-4,-6,-4,-9,0
1563815723409095,0,-1,-1,0,2,3,-7,-1
1563815723409095,-1,-2,-4,0,-3,-9,4,0
1563815723416091,0,1,0,4,3,8,1,-1
1563815723416091,0,-1,4,2,3,4,4,0
1563815723431086,0,1,-2,-2,-3,-16,-13,-3
1563815723431086,0,-1,1,1,-1,0,5,1
1563815723432083,-2,-1,-3,-4,1,0,-3,-3
1563815723432083,1,-1,2,2,0,3,-10,-1
1563815723445134,0,-2,0,-1,-3,2,4,-1
1563815723445134,-2,-2,-4,-2,1,2,2,-1
1563815723452129,0,-3,-3,-2,-2,-7,-13,-1
1563815723452129,-2,-2,-2,-1,-1,-5,6,-1
1563815723469101,0,0,0,1,0,10,-2,2
1563815723469101,-1,0,-1,-2,-4,3,-12,-3
1563815723471060,-1,-3,-3,-4,1,1,5,0
1563815723471060,-2,0,-1,-1,-4,-11,-5,-1
1563815723491049,-2,0,-2,-1,0,-3,2,0
1563815723491049,-2,0,0,1,2,-6,7,0
1563815723493048,0,-1,2,3,3,11,-7,0
1563815723493048,0,-2,0,-1,-1,-6,3,0
1563815723505041,-2,0,2,3,2,3,2,-1
1563815723505041,1,-1,-3,-3,-1,-8,-1,0
1563815723520032,-1,0,0,1,1,2,-1,-1
1563815723520032,-2,0,1,0,-1,2,-25,-4
1563815723528026,1,0,-3,-2,-1,0,1,-2
1563815723528026,-1,0,-1,-2,-1,0,0,0
1563815723530025,0,-1,0,-1,0,1,1,0
1563815723530025,0,-1,-3,-2,-2,0,6,1
1563815723551036,-1,-2,-2,-1,0,0,0,0
1563815723551036,-1,0,1,5,5,2,-1,-3
1563815723553012,1,-2,-2,-6,-8,-7,-1,-1
1563815723553012,-2,0,-2,-1,-1,-11,18,0
1563815723565065,1,1,2,-2,0,11,-9,-4
1563815723565065,-1,0,-3,-4,-11,-12,-17,-3
1563815723581003,-2,0,-2,-2,-1,-4,-1,2
1563815723581003,0,-1,0,5,4,0,20,2
1563815723588052,0,-2,-1,1,0,3,-2,0
1563815723588052,1,0,2,0,3,6,7,3
1563815723589994,-1,0,0,2,0,-8,-9,-4
1563815723589994,-3,-2,-3,-6,-5,-4,-2,0
1563815723612000,-1,0,4,2,3,9,-7,-3
1563815723612000,0,-3,-3,-4,-3,4,3,1
1563815723618977,-1,-2,0,-2,-1,1,5,0
1563815723618977,-1,0,1,3,2,0,1,0
1563815723641022,-4,-1,1,-1,-5,-18,-4,-2
1563815723641022,-1,1,1,-1,2,2,-18,-7
1563815723642960,-1,-1,-1,-1,-1,4,4,1
1563815723642960,0,-2,-2,-3,-3,4,-3,-1
1563815723655993,1,-1,-3,-1,0,-2,8,0
1563815723655993,-3,-2,0,0,-5,-10,3,1
1563815723657952,0,-1,-4,-1,-1,-3,-2,-2
1563815723657952,0,0,-1,-2,1,9,-15,-3
1563815723671005,-1,-2,-3,-4,-1,2,6,1
1563815723671005,-1,-1,0,3,-1,-9,0,-2
1563815723672943,0,1,3,3,3,5,-10,-5
1563815723672943,0,-2,0,-1,-3,-12,12,1
1563815723684998,0,-2,-2,2,3,5,-14,-1
1563815723684998,-2,-1,-3,0,1,3,9,3
1563815723693932,-2,-1,0,0,-1,-4,3,2
1563815723693932,-2,-2,0,-4,-7,-19,11,-2
1563815723708924,0,1,-1,1,4,4,2,1
1563815723708924,2,-1,-2,-2,-4,1,2,0
1563815723709930,0,-2,-4,-2,-1,-2,-3,1
1563815723709930,-1,-1,-1,1,2,7,1,0
1563815723730910,0,-2,-2,-3,-3,-17,-4,-2
1563815723730910,-1,-1,-4,-2,-6,-3,1,1
1563815723732911,-2,0,-1,-2,-1,4,-4,-2
1563815723732911,-1,0,0,2,3,11,-2,0
1563815723744902,-1,-3,-1,-4,-5,-8,0,-1
1563815723744902,0,-3,-2,0,4,9,0,0
1563815723753897,0,-1,-1,-2,-1,-1,7,0
1563815723753897,0,0,0,0,0,-2,-11,-3
1563815723768893,-2,-1,-3,-5,-5,-2,13,5
1563815723768893,-1,0,0,0,-1,-9,2,1
1563815723769887,-3,-3,-2,-3,-7,0,2,-2
1563815723769887,-1,-1,-1,-2,-1,3,0,2
1563815723798876,0,-1,2,2,-1,-7,-3,-2
1563815723798876,0,-2,-2,-1,-2,0,3,-1
1563815723799870,-2,0,-2,-1,-1,-8,8,0
1563815723799870,-1,-1,1,1,0,-1,-8,0
1563815723804871,0,0,-1,-4,0,14,-4,2
1563815723804871,-1,0,1,1,2,2,-2,-1
1563815723813862,0,-1,-2,-3,-1,0,-5,-2
1563815723813862,-1,1,-2,2,-4,-1,-13,-3
1563815723828866,0,2,-1,-2,1,1,4,-1
1563815723828866,-2,-1,1,3,-1,-8,1,0
1563815723829853,0,1,0,-1,2,16,-21,-1
1563815723829853,-2,-3,-3,-2,0,8,1,0
1563815723849847,-1,-2,-1,-3,-2,-4,2,-2
1563815723849847,-1,-1,0,-2,2,7,-23,-4
1563815723858836,-2,-3,0,-1,-2,-7,10,0
1563815723858836,-2,1,1,3,2,2,1,-1
1563815723864873,-1,-1,-4,-1,-4,-1,-6,-3
1563815723864873,-2,-2,-1,-1,0,-3,8,0
1563815723873831,-1,1,0,0,0,-4,-3,-2
1563815723873831,-1,1,-1,-1,0,-4,-8,-5
1563815723888819,-1,-2,-3,-2,-4,-1,6,0
1563815723888819,0,0,1,-2,1,2,1,-3
1563815723889826,0,0,1,2,1,3,5,0
1563815723889826,-1,-3,-4,-5,-7,-19,-9,-1
1563815723910845,0,0,-2,0,1,0,1,0
1563815723910845,-2,-2,-1,-3,-4,-4,5,0
1563815723912827,0,0,1,1,2,1,15,3
1563815723912827,1,-3,-4,-4,-6,-7,2,0
1563815723933792,-1,0,0,1,0,-3,-4,-3
1563815723933792,0,1,0,0,0,3,1,-1
1563815723935791,-1,-1,-1,-1,-2,-11,2,0
1563815723935791,0,-2,-1,1,4,11,-3,1
1563815723948784,0,-2,-2,-3,-3,-6,1,-1
1563815723948784,1,0,0,1,-1,3,2,2
1563815723950784,-2,-1,-2,-2,-3,-5,-2,-2
1563815723950784,-1,0,1,0,1,0,5,0
1563815723970774,-2,0,2,3,3,4,-13,-5
1563815723970774,-1,1,-5,-6,-2,2,1,-1
1563815723972770,0,-3,-1,1,-3,-4,-11,-3
1563815723972770,-2,-1,1,0,-1,-8,3,1
1563815723993815,0,-1,0,-1,1,12,-3,-2
1563815723993815,-1,-1,-1,-2,-2,-6,2,-1
1563815723994761,-2,-2,-2,-1,-2,1,-4,-2
1563815723994761,1,-1,-2,-1,6,6,6,0
1563815724008807,0,0,2,1,-2,-10,4,0
1563815724008807,-1,-2,-3,-6,-12,-4,-2,0
1563815724009752,1,-1,0,0,7,27,0,3
1563815724009752,-1,0,1,-1,-4,-23,-25,-6
1563815724030740,0,-1,-2,-2,2,3,2,1
1563815724030740,1,-1,1,3,2,-2,-5,0
1563815724032738,-1,0,-1,-1,-1,-3,5,0
1563815724032738,-2,1,0,-1,-1,-6,17,2
1563815724053784,-2,0,0,-1,0,7,-13,-2
1563815724053784,-2,-2,-2,-1,-2,-10,13,1
1563815724054727,0,-2,-1,0,-1,-3,-7,-1
1563815724054727,-1,0,0,-1,0,4,1,0
1563815724075772,1,-2,-5,-2,-8,-13,1,-2
1563815724075772,0,0,-1,1,4,8,-3,0
1563815724077712,-2,0,-1,1,-2,-15,11,0
1563815724077712,1,1,-1,-6,-2,8,-5,-4
1563815724098712,0,-2,0,-2,2,-5,-2,-1
1563815724098712,1,-1,3,2,0,8,-7,-2
1563815724099699,1,-2,-1,-2,-7,-7,-4,-2
1563815724099699,-2,-1,-3,-1,-1,6,0,1
1563815724113692,-2,-3,-3,-2,0,7,8,-1
1563815724113692,0,-1,1,-1,0,-17,-7,-2
1563815724114691,-2,0,0,-1,1,-1,-3,0
1563815724114691,-1,-3,1,3,-2,-8,2,-2
1563815724127714,2,-1,-3,-6,-3,0,2,1
1563815724127714,-1,-1,0,1,0,-2,-6,-1
1563815724134710,1,1,2,1,0,6,-2,-3
1563815724134710,-1,0,-3,0,-2,7,0,0
1563815724150673,-1,1,1,1,1,-5,3,0
1563815724150673,0,-1,-2,-2,-2,0,1,-1
1563815724152667,0,0,0,0,1,12,-13,-1
1563815724152667,-1,0,1,1,1,0,1,-1
1563815724173658,-1,-1,-3,-2,-4,-2,-1,-1
1563815724173658,0,-1,-2,-2,0,2,1,-1
1563815724174655,-2,0,-2,-1,2,-4,-1,-1
1563815724174655,0,-1,-2,0,-6,-1,0,-1
1563815724187670,-1,-1,0,-1,-4,2,-1,0
1563815724187670,-1,-3,-2,-4,-2,-1,-4,-1
1563815724194684,0,-2,0,-4,-1,3,7,0
1563815724194684,0,0,2,5,5,1,-4,-1
1563815724211673,-1,-2,-1,1,0,-8,-1,-1
1563815724211673,-2,-1,-3,-4,-5,-1,-2,0
1563815724216630,-1,-1,0,-1,-1,-3,3,0
1563815724216630,0,0,0,-2,0,6,1,-1
1563815724234620,-2,1,2,3,0,1,-5,-1
1563815724234620,-2,-1,-2,-3,-1,-12,0,-1
1563815724235621,0,-3,-4,-3,-2,-3,-1,0
1563815724235621,0,-1,1,-3,-2,1,1,0
1563815724247673,-1,0,2,4,5,12,10,2
1563815724247673,-1,-2,-2,1,-1,-8,-11,0
1563815724255611,-1,0,0,-4,-2,-5,2,-2
1563815724255611,0,-2,-5,0,4,-1,-1,2
1563815724270601,0,-2,0,-4,-8,-4,0,0
1563815724270601,-1,-1,-2,0,-2,6,5,0
1563815724272601,-2,-2,-2,3,-4,-3,-1,-2
1563815724272601,-2,-1,-2,-3,3,-3,-8,-2
1563815724300643,0,0,0,-2,2,-2,-2,-2
1563815724300643,-1,1,1,0,0,4,-1,-2
1563815724302583,-1,-1,0,-2,-2,-5,-3,0
1563815724302583,0,0,1,2,-1,3,5,-1
1563815724307587,0,-1,0,2,2,6,-16,-4
1563815724307587,0,-2,-1,0,-2,-4,-1,0
1563815724314612,-1,-2,-2,-5,-5,0,2,-1
1563815724314612,-1,0,2,2,0,0,-5,-3
1563815724331566,-2,-2,-3,-1,-4,-17,8,1
1563815724331566,0,-1,0,0,4,8,0,1
1563815724337562,0,-1,-1,1,5,1,-6,-2
1563815724337562,1,0,1,0,-4,-6,2,2
1563815724353552,-2,-1,-2,-3,-8,-13,7,-1
1563815724353552,-2,-1,-3,1,-1,16,-7,-2
1563815724355551,1,1,1,0,0,-13,-7,0
1563815724355551,-1,-2,-4,0,0,6,2,-1
1563815724367545,0,-1,-3,-1,4,2,-6,-1
1563815724367545,-2,1,1,0,0,2,7,-2
1563815724374542,0,-1,0,-1,-1,6,5,0
1563815724374542,0,-1,-1,-1,-4,-4,-7,-3
1563815724390554,0,0,2,3,4,0,1,2
1563815724390554,0,-3,-4,-4,-2,-8,2,0
1563815724392530,-2,-1,0,-1,-2,-3,-2,-3
1563815724392530,0,-2,-1,-1,-1,-2,7,-1
1563815724414516,-1,0,-3,-1,-1,0,-4,-2
1563815724414516,-2,-1,0,-1,2,0,1,-1
1563815724415517,-1,2,-1,1,-4,-2,-3,-1
1563815724415517,-1,-2,-2,-5,-8,5,3,-1
1563815724428509,0,-1,-2,-1,-2,-12,-5,0
1563815724428509,-1,0,0,0,1,9,-13,-1
1563815724436504,-2,2,2,4,3,1,-1,0
1563815724436504,-3,-1,-2,0,5,3,4,-1
1563815724451503,-2,-1,-2,-5,-7,-4,-8,-3
1563815724451503,1,1,0,1,-7,-6,5,1
1563815724452495,0,-1,0,1,0,1,-1,0
1563815724452495,0,-2,-2,-4,1,-1,4,2
1563815724473483,0,-1,-3,-2,0,1,-1,-2
1563815724473483,-1,-1,-2,-2,-1,-15,8,-1
1563815724475482,0,-2,-3,0,1,0,-4,-1
1563815724475482,-2,-2,-1,-2,-3,1,2,1
1563815724487536,-1,0,2,2,1,4,5,-1
1563815724487536,-1,1,0,-4,-9,-10,-4,-1
1563815724496473,-1,-3,-2,-2,0,1,1,2
1563815724496473,0,-1,-1,-3,-1,-3,-3,-1
1563815724518471,0,-2,-2,-1,4,5,-1,-1
1563815724518471,0,0,0,-1,1,5,-3,-2
1563815724520480,-1,-1,0,-1,-4,-4,2,-1
1563815724520480,-1,0,1,4,6,3,-4,-1
1563815724541446,1,-1,0,1,-7,-2,0,1
1563815724541446,-2,-2,-4,-4,2,1,-1,-2
1563815724542444,-1,-2,-3,2,0,6,2,-2
1563815724542444,0,0,3,4,-14,-4,0,1
1563815724547443,-3,0,-3,-6,-1,-1,-1,1
1563815724547443,-2,-4,-5,-3,24,4,-3,-4
1563815724556438,0,1,1,2,2,6,3,3
1563815724556438,-8,0,1,7,-19,-8,-3,-6
1563815724570438,6,-4,-4,-4,5,-1,-4,-1
1563815724570438,-4,-3,-8,-13,-19,-16,-7,-2
1563815724577426,-2,-1,-1,-2,-1,-5,-3,-2
1563815724577426,3,-1,-2,-3,-6,-7,-1,2
1563815724601421,-5,-1,1,5,-5,5,4,0
1563815724601421,1,2,5,6,1,4,1,-1
1563815724602413,2,2,3,3,6,5,1,0
1563815724602413,-4,-2,-4,-4,-1,-2,-3,-3
1563815724607407,-2,-1,-5,-3,-5,-2,1,-1
1563815724607407,2,3,2,8,12,10,4,1
1563815724616403,-3,1,1,-4,-13,-7,-7,-3
1563815724616403,1,1,-1,-3,6,-1,-4,-1
1563815724639396,-1,-3,-4,-4,5,0,3,0
1563815724639396,0,0,-1,1,-6,7,3,3
1563815724640388,-2,-3,-1,0,-2,1,2,-2
1563815724640388,0,0,-1,-6,2,-14,-8,-4
1563815724653414,1,-1,3,7,3,-4,-1,2
1563815724653414,0,-1,-1,2,-3,10,10,-1
1563815724655382,-3,-5,-6,-8,-5,-10,-8,-2
1563815724655382,-1,-1,-2,0,7,-4,9,-2
1563815724667412,0,1,1,1,-8,-2,-2,-5
1563815724667412,1,0,3,-2,-3,-8,-6,-1
1563815724676368,-1,-1,-3,1,5,1,12,3
1563815724676368,0,-2,0,-2,3,7,0,-2
1563815724691391,-1,0,2,-1,-8,-11,3,1
1563815724691391,-3,-2,0,-2,-3,2,-9,-2
1563815724692360,1,-1,-3,1,2,-3,1,0
1563815724692360,1,0,-2,0,1,7,3,5
1563815724713347,-4,1,3,0,2,1,-4,-12
1563815724713347,-2,-2,-2,-1,-1,-3,-20,-6
1563815724715346,-1,-1,-3,0,0,-1,16,9
1563815724715346,1,0,-1,-1,2,-1,-20,-4
1563815724727398,1,1,1,3,5,9,17,4
1563815724727398,0,-1,-2,-1,-4,-1,2,7
1563815724742330,-2,0,0,-2,-4,-16,-30,-20
1563815724742330,-2,-2,-5,-2,2,9,2,0
1563815724751325,1,0,-3,-3,-6,-2,8,6
1563815724751325,-1,-2,-3,-3,-5,-12,13,13
1563815724752326,-2,-1,0,-2,0,5,-6,-22
1563815724752326,-2,-2,1,-1,1,-7,-9,3
1563815724773313,0,-2,-2,-1,7,17,5,5
1563815724773313,1,1,3,-2,-3,-7,14,-9
1563815724775312,0,-1,-2,-1,-5,1,-21,25
1563815724775312,1,1,1,1,-1,-3,11,-2
1563815724787307,-4,1,1,0,-1,-7,-6,-15
1563815724787307,-6,-1,-2,-3,1,3,-12,-8
1563815724796306,-3,-2,-3,-3,8,7,-11,-9
1563815724796306,1,2,5,10,-1,-8,16,6
1563815724811351,-3,-4,-4,-3,-8,-12,-21,12
1563815724811351,1,-4,-6,-5,-4,1,17,-3
1563815724812294,5,4,6,2,5,16,4,-7
1563815724812294,2,1,-3,1,8,17,20,7
1563815724833298,-5,-4,-1,-4,-11,-29,-50,-2
1563815724833298,-4,-1,-3,4,-1,-6,4,-13
1563815724835282,-2,-1,0,-1,1,-1,32,29
1563815724835282,0,-4,-7,-13,-9,-3,31,-6
1563815724847329,3,4,5,7,7,3,-12,-1
1563815724847329,8,2,2,3,12,22,-24,35
1563815724856264,-6,-1,0,-1,-9,-4,32,2
1563815724856264,-5,-1,-2,-4,6,7,-21,-23
1563815724871298,-12,-6,-7,-9,-11,-12,-8,-45
1563815724871298,-10,-6,-4,0,-4,-11,-69,-16
1563815724872255,1,3,4,7,9,-1,-23,-25
1563815724872255,2,0,-3,-2,-4,-3,16,15
1563815724893243,-1,0,-4,-3,-1,3,9,-3
1563815724893243,3,-2,-1,-4,-8,-5,40,14
1563815724895242,8,2,0,-1,-4,-2,-8,17
1563815724895242,-15,-5,-1,1,-1,-5,-49,-42
1563815724907235,5,0,-2,-3,3,3,0,19
1563815724907235,0,1,0,2,1,3,2,-20
1563815724916245,3,-1,-3,-4,-5,-1,16,31
1563815724916245,-1,1,2,3,3,14,-23,0
1563815724931254,3,3,2,5,5,3,32,18
1563815724931254,-3,-2,0,-3,0,11,-21,-30
1563815724932226,-4,-3,-4,2,4,0,22,-26
1563815724932226,19,6,3,1,-2,-18,-31,51
1563815724953268,-6,-2,4,-5,-14,-4,7,-14
1563815724953268,4,3,2,7,0,-7,17,23
1563815724955209,-15,-9,-9,-7,-3,1,3,-43
1563815724955209,7,3,7,14,13,3,46,14
1563815724976199,1,0,-7,-11,0,5,-55,-6
1563815724976199,-4,-5,-4,-5,-6,-14,21,5
1563815724977196,-4,2,2,6,3,-3,-5,-12
1563815724977196,5,-6,-9,9,8,-6,18,28
1563815724992187,1,0,7,6,9,4,48,-3
1563815724992187,5,2,-1,-5,-5,7,-6,21
1563815724998184,3,0,-1,-12,-23,-16,30,25
1563815724998184,-10,-9,-8,3,-6,-20,-5,3
1563815725013183,2,-1,1,7,14,16,27,20
1563815725013183,-12,-8,-10,-20,-17,2,22,2
1563815725015173,7,7,5,5,3,-31,-60,-26
1563815725015173,-6,0,-1,-10,-11,2,-19,-13
1563815725036162,0,-1,-6,6,4,-1,-27,-16
1563815725036162,-7,-1,5,14,11,-6,3,1
1563815725038161,2,-2,-2,-8,2,27,34,19
1563815725038161,12,3,-1,-6,-3,-9,-43,21
1563815725051184,-10,-4,-1,-6,-1,11,9,-36
1563815725051184,-2,3,-2,2,6,2,-27,-31
1563815725052152,3,2,9,12,7,-9,-42,3
1563815725052152,0,2,-2,-14,-21,0,-1,-52
1563815725073141,4,-3,-4,1,-1,0,37,48
1563815725073141,-5,-2,-1,2,5,2,-3,-3
1563815725075140,-8,-5,-5,1,0,0,-21,-23
1563815725075140,-2,1,3,10,8,-3,6,25
1563815725096127,7,5,4,3,8,-5,35,-22
1563815725096127,1,1,3,2,-2,14,-39,-27
1563815725097128,1,-5,-11,-16,-9,-5,4,15
1563815725097128,-12,-4,-1,-1,-1,24,60,5
1563815725110120,-8,-8,-7,-10,-12,-32,-96,-27
1563815725110120,5,3,6,3,7,1,52,29
1563815725117117,-5,-4,0,0,-7,-7,-33,-21
1563815725117117,-4,-4,-5,-3,2,0,3,-16
1563815725133110,4,1,0,8,8,14,43,31
1563815725133110,-10,-6,-6,-2,-1,-9,-12,-33
1563815725135107,15,5,1,2,4,14,61,42
1563815725135107,0,-1,-1,-5,-2,-12,-61,20
1563815725156092,2,-1,-2,-9,-12,-5,20,26
1563815725156092,-4,-1,-1,-6,-5,-8,-17,1
1563815725162092,-8,-2,-4,-4,1,2,26,-1
1563815725162092,1,-1,0,-2,2,13,46,-23
1563815725170106,0,2,1,3,5,8,-31,-16
1563815725170106,4,1,-1,-2,-6,-10,-16,11
1563815725177081,3,0,1,6,8,19,36,25
1563815725177081,-4,1,2,-2,-2,-9,-23,-18
1563815725193071,-3,-1,-2,-4,-4,-2,-21,-4
1563815725193071,3,-1,-1,3,1,1,40,19
1563815725195070,1,0,-1,-2,0,-2,-20,2
1563815725195070,-1,1,1,-3,-2,2,-24,-20
1563815725216099,-2,-2,-5,-3,-6,-7,7,-1
1563815725216099,4,-1,-2,-2,1,-1,-13,-7
1563815725217057,-9,-1,-1,-2,-4,-17,-4,-19
1563815725217057,4,2,2,0,2,10,27,24
1563815725246040,-10,-4,0,3,-1,-4,-52,-36
1563815725246040,-4,-2,-4,-6,-4,-3,-4,-7
1563815725248039,-2,-4,-3,-2,-7,-7,2,5
1563815725248039,-6,0,1,4,3,-3,0,-17
1563815725253058,-1,1,-1,-1,0,0,15,4
1563815725253058,4,-2,-1,-5,-3,-3,-14,3
1563815725255040,-6,-6,-2,3,1,-1,19,-5
1563815725255040,1,-1,-1,0,6,8,-19,11
1563815725276045,-3,2,2,5,-2,-2,-36,-24
1563815725276045,4,-1,-2,-8,-4,11,28,0
1563815725278022,1,2,4,9,1,-5,-28,-4
1563815725278022,-5,-4,-4,-8,-7,-6,10,1
1563815725290019,0,-1,-2,-1,1,2,15,14
1563815725290019,-1,0,-1,3,4,2,9,6
1563815725297033,0,-1,-1,-2,0,0,-16,-5
1563815725297033,-2,-2,-2,0,-2,-8,-7,-5
1563815725313011,1,-2,-2,-5,-4,-2,6,-1
1563815725313011,0,-1,1,3,3,-3,9,2
1563815725315002,-2,-1,-5,-2,4,12,13,8
1563815725315002,-1,0,1,5,-5,-8,-11,-14
1563815725335989,2,-4,-8,-18,-12,0,10,20
1563815725335989,-5,-1,-2,5,4,3,0,-1
1563815725337988,-2,2,5,4,2,-7,-25,-27
1563815725337988,-1,-1,-3,-6,-3,0,6,-4
1563815725349981,1,0,6,9,8,8,50,7
1563815725349981,-4,-3,-4,0,1,5,-3,-17
1563815725357009,6,1,4,2,-7,-21,-45,24
1563815725357009,-8,-2,-2,1,-6,-7,-7,-16
1563815725373969,7,4,2,0,3,25,5,17
1563815725373969,-1,-4,-5,-5,-3,-10,29,19
1563815725374968,-1,4,5,14,11,6,-24,-29
1563815725374968,-1,-1,0,-4,4,0,13,0
1563815725395961,1,-2,-2,-4,-11,-12,-16,4
1563815725395961,2,1,0,2,3,-2,2,6
1563815725397954,-2,-2,-2,-5,-6,3,11,-7
1563815725397954,-1,0,-2,-5,-5,-8,-15,-1
1563815725409947,-6,-3,-2,1,6,0,7,-12
1563815725409947,1,2,0,-5,-6,0,-9,-1
1563815725424940,-2,-2,-2,-2,-3,-5,7,-2
1563815725424940,-2,-3,-2,-3,-2,-2,-13,4
1563815725433932,-2,0,0,2,7,6,16,0
1563815725433932,10,3,6,6,0,2,5,17
1563815725434933,-4,-7,-11,-17,-10,1,-13,-8
1563815725434933,0,-1,-1,5,4,-10,-5,-8
1563815725454924,2,0,-1,-4,-4,-2,-5,11
1563815725454924,-3,2,2,-1,-5,-8,-13,-14
1563815725463915,-1,-2,0,0,5,23,48,10
1563815725463915,4,4,4,2,4,11,-40,-10
1563815725469912,-7,-6,-7,-2,-8,-21,30,5
1563815725469912,-2,0,1,3,1,6,-4,-15
1563815725484904,8,-2,-3,-6,-6,-11,-11,26
1563815725484904,4,1,1,-3,-3,16,41,16
1563815725493901,-1,2,2,3,4,-4,-53,-9
1563815725493901,-6,0,-3,-1,-3,-10,-7,-19
1563815725494901,-6,-2,-2,1,0,-4,3,-3
1563815725494901,5,0,-1,-3,4,8,48,16
1563815725523894,-2,-1,3,3,-1,-6,-55,-7
1563815725523894,0,1,1,-4,-10,-5,-1,1
1563815725524880,-2,0,-2,-2,-1,-8,-29,-9
1563815725524880,-6,-3,-3,0,-1,9,24,5
1563815725529898,4,0,-2,-2,2,4,24,9
1563815725529898,-4,-1,-2,1,4,-4,-22,-18
1563815725538873,1,-1,-2,-3,-3,2,25,13
1563815725538873,2,-2,-2,-1,-4,-4,6,2
1563815725560859,-4,-1,-1,-3,-4,2,-11,-11
1563815725560859,-3,-2,-1,6,2,-13,13,5
1563815725562858,6,0,-1,-6,1,8,-15,0
1563815725562858,-7,-6,-9,-9,-1,-1,-3,-4
1563815725575874,6,2,1,3,2,9,-14,-5
1563815725575874,-9,-4,-1,-2,-13,-10,-13,-12
1563815725577854,-5,0,0,1,3,1,15,-5
1563815725577854,-4,0,0,4,4,-6,-5,-5
1563815725589849,5,1,-2,-2,0,-2,17,2
1563815725589849,-4,-4,-3,-2,6,0,-26,-8
1563815725598838,4,1,1,-3,-8,-10,-9,7
1563815725598838,-1,-3,0,-2,-7,-6,0,-1
1563815725613851,-2,-2,-2,4,1,7,32,11
1563815725613851,3,1,1,-4,0,-3,-5,5
1563815725614829,-6,-4,-6,-7,-6,-7,-8,-16
1563815725614829,2,0,1,1,0,-7,-5,-1
1563815725635816,-4,-1,-2,-6,1,4,17,2
1563815725635816,5,0,-4,-3,-2,4,3,21
1563815725637816,-2,-2,1,3,-4,-6,2,-1
1563815725637816,-6,-1,-2,-3,2,0,-14,-17
1563815725649815,-3,-1,-1,4,0,-7,-6,8
1563815725649815,0,1,3,2,2,0,-8,-2
1563815725665799,-6,-5,-6,-8,-10,-8,25,1
1563815725665799,1,0,1,7,9,15,-9,-11
1563815725673816,3,0,3,6,0,-19,-10,8
1563815725673816,-1,-2,-7,-8,-11,0,16,6
1563815725674794,-2,1,-1,1,4,1,-1,-3
1563815725674794,-3,-2,-1,-1,-6,-17,1,-2
1563815725695803,-2,-1,-1,1,5,11,-3,-9
1563815725695803,2,-1,1,-1,4,1,29,9
1563815725697802,1,0,-1,0,-1,0,-15,2
1563815725697802,2,0,-1,-4,1,3,1,6
1563815725709775,-7,-4,-3,1,-6,-13,-7,-17
1563815725709775,-1,-1,-2,-1,-5,-5,-16,-5
1563815725718771,-4,-3,0,-3,2,4,12,-2
1563815725718771,1,3,2,2,2,1,13,7
1563815725740758,-1,1,0,0,-2,7,0,2
1563815725740758,6,2,3,2,4,1,-9,11
1563815725742757,3,1,-2,-1,4,1,-9,8
1563815725742757,-5,-5,-2,-2,-8,-12,-8,-12
1563815725755757,-2,2,1,2,2,7,11,-14
1563815725755757,4,1,-1,-7,0,12,11,24
1563815725757748,-2,3,1,7,4,6,-23,-33
1563815725757748,9,2,0,-6,-9,-13,2,42
1563815725778766,-5,-4,-6,-11,-7,-1,-12,-14
1563815725778766,0,-2,0,6,5,3,-6,1
1563815725779736,-3,-2,0,0,0,-4,4,-8
1563815725779736,-2,-1,-1,3,4,8,-5,-9
1563815725792727,6,1,1,-1,6,3,26,28
1563815725792727,-1,-2,1,5,1,-5,-15,-20
1563815725800729,-6,-3,-4,-10,-13,-4,11,-2
1563815725800729,0,0,-2,1,0,2,-8,-7
1563815725815715,0,0,-2,-6,-7,-9,-9,5
1563815725815715,-3,1,-1,-3,1,8,24,-2
1563815725817713,5,1,4,8,5,-5,21,16
1563815725817713,-5,-1,0,-1,0,0,-32,-15
1563815725829711,-1,-1,-1,-3,-2,-5,10,1
1563815725829711,1,-1,-1,-1,-3,1,12,12
1563815725838706,-3,-3,-1,-4,-6,-4,-18,-14
1563815725838706,1,-2,-1,-1,-1,0,10,1
1563815725854692,2,-2,0,3,2,5,15,12
1563815725854692,0,1,-1,1,3,5,-40,-31
1563815725866684,-2,-1,-2,-11,-5,5,-11,13
1563815725866684,0,-1,0,3,3,17,19,2
1563815725883680,-3,-2,-6,-15,-17,-15,-29,1
1563815725883680,-1,-1,-2,1,0,-3,42,2
1563815725884677,9,5,4,7,8,-1,-34,11
1563815725884677,-7,-4,-4,-7,-14,-11,-5,-8
1563815725898665,3,1,4,6,6,7,8,2
1563815725898665,-5,-3,-3,-6,-5,-5,-7,-6
1563815725899665,2,0,-1,7,8,3,0,-2
1563815725899665,3,1,2,0,1,-6,12,9
1563815725913679,-4,-2,0,1,1,0,-4,-12
1563815725913679,-1,-1,0,-10,-7,-4,-1,3
1563815725914664,-1,-1,0,3,4,13,5,-3
1563815725914664,-1,0,-1,-2,-4,-18,13,13
1563815725935667,0,-1,-1,0,-1,12,-25,-23
1563815725935667,-3,-1,-2,3,6,1,5,8
1563815725937652,-2,-2,-1,1,-2,-2,15,-13
1563815725937652,-1,0,-2,-2,-2,3,-18,3
1563815725965650,0,-2,1,-1,-1,-6,4,5
1563815725965650,0,-1,0,0,-1,-1,-13,-6
1563815725973623,0,0,0,1,-1,9,-14,8
1563815725973623,-3,-2,-2,0,2,5,5,-11
1563815725974621,0,1,2,1,2,-5,-27,-3
1563815725974621,-4,-3,-3,-3,-6,0,20,5
1563815725976625,-1,-2,-1,-2,-1,-2,23,10
1563815725976625,1,1,1,4,5,-10,-31,-11
1563815725995609,2,0,-1,-1,-4,-20,54,17
1563815725995609,1,-1,0,3,3,10,-41,-8
1563815725997610,-4,-1,-1,0,2,0,-3,-23
1563815725997610,-5,-1,1,-1,0,-3,0,-6
1563815726026595,-2,-4,-2,-1,-1,-8,-4,4
1563815726026595,1,-1,1,1,-1,1,28,2
1563815726028592,3,1,1,-4,1,11,-29,3
1563815726028592,0,0,0,1,2,8,6,5
1563815726032591,-6,-3,-2,-3,-7,-12,-2,-17
1563815726032591,0,1,1,2,1,-3,-4,6
1563815726039586,-4,-1,-2,-1,-2,-7,-18,-16
1563815726039586,-2,-2,-4,-3,-5,-2,18,-1
1563815726055598,2,0,2,2,2,7,-1,10
1563815726055598,0,-1,0,0,0,14,-9,-6
1563815726057575,-2,-3,-4,-6,-7,-33,-2,-8
1563815726057575,0,-1,-1,1,1,3,-12,-5
1563815726078585,0,0,-2,1,2,3,-9,0
1563815726078585,0,-2,-1,4,1,-5,13,1
1563815726079562,-3,-2,-2,-4,-6,0,-2,-2
1563815726079562,3,-1,-3,-3,-3,-6,8,5
1563815726093555,-3,-2,-3,-3,-1,18,-3,-6
1563815726093555,-2,1,0,2,2,-6,-20,-8
1563815726100550,2,-1,-2,-1,2,-3,18,17
1563815726100550,-4,-3,1,5,1,-2,-6,-13
1563815726115544,1,1,-5,1,0,3,-13,-8
1563815726115544,-2,-2,0,-1,-1,-9,16,9
1563815726115544,-6,-4,-6,-10,-11,-13,4,-5
1563815726115544,1,0,-2,-6,1,1,-12,-10
1563815726137529,1,0,2,2,-1,9,2,4
1563815726137529,-2,-2,0,1,0,-16,7,-1
1563815726138528,5,1,4,4,4,17,-15,13
1563815726138528,1,-1,-3,-3,-3,-10,8,0
1563815726160538,-2,1,2,-2,4,19,-14,-9
1563815726160538,-1,-1,-5,-1,1,-15,3,6
1563815726161517,0,1,1,-1,1,1,18,-1
1563815726161517,-1,-1,-1,0,-3,5,-3,-2
1563815726183525,3,2,7,15,6,-15,0,0
1563815726183525,1,-1,-4,-16,-9,8,6,6
1563815726184502,-1,-1,-1,-4,-3,-18,-4,5
1563815726184502,-5,-3,-2,-1,-3,5,4,-10
1563815726197517,3,1,-7,-13,-7,-18,-3,4
1563815726197517,0,1,5,9,3,13,-20,-14
1563815726198494,-2,2,3,3,-1,6,-8,-8
1563815726198494,5,2,2,-2,2,-8,12,22
1563815726213484,-1,-3,-2,4,1,2,-15,3
1563815726213484,-2,-1,-4,-10,-11,-11,-17,-9
1563815726220503,-1,-1,-6,-4,-2,0,23,1
1563815726220503,-2,-3,-2,1,-3,-16,-12,0
1563815726235476,-2,-1,1,0,5,13,16,1
1563815726235476,2,0,1,3,7,7,-9,-4
1563815726236472,0,0,3,8,5,4,1,-1
1563815726236472,0,0,0,2,2,-12,6,6
1563815726257463,-1,-4,-9,-12,-6,7,14,6
1563815726257463,-6,-4,-2,1,-4,-11,-12,-10
1563815726258459,4,1,3,2,-1,-16,1,4
1563815726258459,-5,-1,-4,-6,-3,16,25,-3
1563815726272458,1,1,2,-3,-6,-10,-8,-3
1563815726272458,4,0,-4,-4,-4,8,7,13
1563815726280448,-10,-5,-7,-2,-3,-13,-46,-30
1563815726280448,-4,1,2,5,6,2,-27,-7
1563815726295443,4,-1,-2,-2,3,15,19,2
1563815726295443,1,0,3,-1,-1,-16,6,1
1563815726296438,2,2,6,12,8,26,17,0
1563815726296438,7,3,-2,-5,-5,-12,-3,13
1563815726317447,-3,-1,3,4,4,8,-19,-11
1563815726317447,1,-1,-1,-1,-1,-16,7,2
1563815726318424,-2,-8,-10,-6,2,8,-24,-3
1563815726318424,-2,3,5,19,13,5,22,-4
1563815726332418,4,0,-3,-4,-3,-6,3,16
1563815726332418,-5,-5,-5,-12,-20,-13,2,-4
1563815726340417,-1,1,3,-7,-6,12,-3,-6
1563815726340417,2,-1,-1,-2,-1,12,0,-4
1563815726355409,-5,-2,-3,3,3,-7,17,-10
1563815726355409,0,-1,-1,1,9,4,-32,-5
1563815726356413,-3,-2,-1,4,3,-8,22,11
1563815726356413,-2,-1,0,-6,-10,-13,-43,-15
1563815726377392,3,0,3,5,4,14,23,14
1563815726377392,-7,0,1,-1,-4,5,-19,-31
1563815726378413,1,-4,-7,-7,-8,-11,12,8
1563815726378413,3,-3,-1,1,1,2,-16,5
1563815726392382,-8,-2,3,1,-2,-1,-2,-19
1563815726392382,6,3,2,-3,-3,-5,26,19
1563815726400400,2,2,-2,-4,-2,-6,12,5
1563815726400400,-2,-3,-6,-9,-3,7,9,2
1563815726415393,-1,-2,-6,-5,-3,-22,-4,-2
1563815726415393,0,0,5,10,6,9,-6,-2
1563815726416371,0,2,-3,-6,-6,4,12,1
1563815726416371,-1,-3,-5,-12,-8,-6,-1,-1
1563815726437357,-2,-1,1,-1,-2,-3,3,-2
1563815726437357,-4,0,2,12,6,-12,-13,-8
1563815726438357,3,0,0,-1,4,21,38,18
1563815726438357,0,-2,-2,-5,-7,-24,-47,-10
1563815726452349,-3,1,2,0,-3,-5,-15,-6
1563815726452349,0,-3,-6,-5,-1,7,18,4
1563815726460344,-3,-3,0,4,2,-12,-17,-2
1563815726460344,2,-2,3,8,10,41,36,2
1563815726475338,-1,1,2,-3,-1,14,-40,-5
1563815726475338,0,-1,-4,-8,-6,-7,-11,8
1563815726476335,0,2,4,9,7,7,5,-6
1563815726476335,-1,0,5,12,7,-13,29,6
1563815726497353,-2,-3,-6,-10,-5,5,-5,-3
1563815726497353,2,1,0,-2,0,12,6,2
1563815726498321,1,-4,-2,-3,-3,-14,6,7
1563815726498321,-4,0,1,2,0,2,-11,-5
1563815726512343,-1,-3,-2,4,2,-12,12,12
1563815726512343,-3,-3,-1,3,6,14,16,-18
1563815726520339,-1,2,2,-4,-7,-8,-39,-1
1563815726520339,-1,0,1,-3,-3,-4,-5,-3
1563815726535331,0,0,1,2,0,1,-1,2
1563815726535331,-4,-4,-5,-6,-3,8,3,1
1563815726536318,2,1,1,1,3,-9,2,-2
1563815726536318,-3,-5,-7,-8,-4,0,-12,-7
1563815726557291,-1,-1,-1,5,1,-9,4,-2
1563815726557291,1,1,-1,-4,-7,15,-3,2
1563815726558287,3,2,4,6,7,2,-15,2
1563815726558287,-1,-1,-4,-10,-8,-4,9,2
1563815726572281,-3,-1,-2,-8,-7,-7,4,-6
1563815726572281,-2,-2,-3,1,1,-9,11,5
1563815726580305,-1,-3,-7,-1,1,6,9,2
1563815726580305,4,2,2,6,4,22,-15,6
1563815726595271,-2,0,2,2,1,-9,2,-2
1563815726595271,1,1,2,-4,-3,-6,1,-1
1563815726596266,-1,-1,-2,-4,-5,3,3,-2
1563815726596266,-2,-2,0,3,2,-11,21,4
1563815726618252,-3,2,8,6,2,-4,-33,-21
1563815726618252,3,0,0,-1,0,0,-1,7
1563815726618252,-2,-2,-5,0,5,3,17,0
1563815726618252,-2,-1,-4,-9,-4,9,-11,-4
1563815726633244,1,-2,-2,-2,-5,-14,-7,3
1563815726633244,-3,-2,-2,-3,-1,-14,-4,3
1563815726640240,-1,-1,1,0,-1,1,-3,-6
1563815726640240,-5,-2,1,1,-3,-8,6,-1
1563815726655233,2,-3,-4,-7,-5,13,15,4
1563815726655233,-2,1,2,5,1,-19,-15,-4
1563815726656239,1,-2,-2,-9,-10,1,19,3
1563815726656239,-2,-1,1,3,-2,-16,-21,-8
1563815726677219,-1,-2,-6,-6,3,8,6,-2
1563815726677219,3,2,0,0,2,0,16,9
1563815726685218,-4,-3,3,1,-2,2,-24,-6
1563815726685218,1,-1,-1,0,1,8,18,3
1563815726692213,-3,-2,-2,-1,-5,-18,5,-2
1563815726692213,3,0,1,1,7,17,6,12
1563815726700208,-6,-1,-4,-4,-3,-22,-23,-29
1563815726700208,-1,-1,-3,-3,-2,1,2,-5
1563815726715227,1,0,-2,-2,0,-10,2,5
1563815726715227,-2,-1,1,-2,-5,5,10,-5
1563815726716199,1,1,0,5,2,6,8,11
1563815726716199,1,-1,-1,0,2,2,-12,-3
1563815726738184,-5,-4,-4,0,-6,-14,-25,-8
1563815726738184,0,-1,-2,-2,-1,4,-2,-1
1563815726738184,1,-1,1,-3,-1,1,3,3
1563815726738184,1,-1,4,1,1,0,5,-2
1563815726752177,0,-1,-3,-2,4,11,17,6
1563815726752177,1,0,0,3,5,6,-7,-5
1563815726760201,1,-1,-1,5,0,-1,-20,-4
1563815726760201,0,1,-2,-4,0,5,31,15
1563815726775168,1,0,0,-8,-10,-2,-15,2
1563815726775168,-5,-4,-6,0,-1,-14,-26,-10
1563815726776162,1,0,-1,-5,-3,2,11,5
1563815726776162,4,3,1,6,7,-4,1,5
1563815726798153,-9,-3,0,3,4,10,0,-19
1563815726798153,1,-1,-6,-3,-2,-2,2,-9
1563815726799149,-1,-2,1,-4,-10,-5,-14,-5
1563815726799149,1,0,-2,-2,-7,1,3,9
1563815726812171,1,-3,-1,3,2,-2,13,8
1563815726812171,-1,-1,-1,0,2,5,0,3
1563815726820156,0,0,-4,0,4,-2,12,3
1563815726820156,-3,-2,0,-4,-4,-3,3,-4
1563815726835158,4,2,-2,-2,-7,5,11,10
1563815726835158,-2,-2,-1,0,-2,-7,-29,-10
1563815726836127,-1,-4,-1,1,1,1,9,-6
1563815726836127,1,1,1,0,0,-2,2,-1
1563815726858145,-3,-3,-3,-4,2,-1,-14,0
1563815726858145,-2,0,-1,0,-4,1,5,2
1563815726859114,-2,0,0,-2,-1,0,5,7
1563815726859114,0,1,1,-1,-2,0,-9,-13
1563815726881103,2,2,1,6,3,8,3,-3
1563815726881103,-1,-1,-3,-3,-2,-2,-4,10
1563815726882102,-2,1,3,-1,1,1,-6,-5
1563815726882102,0,0,-2,-1,-1,-6,-2,0
1563815726895097,-3,-3,0,3,0,-6,10,-9
1563815726895097,-5,-1,-1,-10,-9,3,-6,-4
1563815726896097,2,4,2,6,4,4,0,1
1563815726896097,1,-1,-3,-5,-1,1,3,6
1563815726918081,1,-1,-3,2,2,-7,-7,5
1563815726918081,-1,0,7,12,8,-6,6,2
1563815726919080,-2,-2,-6,-3,0,13,16,-4
1563815726919080,-2,-1,0,-4,-7,0,-19,-1
1563815726941067,-2,-1,1,-2,0,-1,-9,-5
1563815726941067,-1,-4,-4,-3,-3,-5,3,6
1563815726942078,3,0,-2,3,2,4,12,9
1563815726942078,-5,-2,0,4,3,-1,-25,-13
1563815726955059,0,-1,-2,3,1,-1,6,1
1563815726955059,2,-3,-2,-2,-2,-3,6,2
1563815726963055,1,-2,-3,-4,-5,1,12,12
1563815726963055,1,0,-3,2,3,3,3,3
1563815726978076,0,4,2,-1,-1,-4,-17,-6
1563815726978076,1,2,3,0,-1,-7,6,2
1563815726979047,0,0,1,-1,2,1,-1,2
1563815726979047,-3,-2,-3,-7,-10,2,-11,-4
1563815727001032,1,2,1,4,5,13,-12,-9
1563815727001032,0,0,-1,-2,-1,-6,4,-2
1563815727002033,-1,-2,-2,-7,-1,-6,-17,0
1563815727002033,-1,0,3,6,1,2,6,0
1563815727015044,-1,-3,-3,-6,-5,-1,3,3
1563815727015044,-4,2,4,5,2,6,6,-9
1563815727016025,-2,-4,-6,-5,-6,-12,-12,-12
1563815727016025,-1,-3,-1,0,4,-5,18,13
1563815727039015,-3,0,0,-7,-6,-1,-11,-4
1563815727039015,-1,1,-2,-1,-4,-4,-1,-2
1563815727039015,-3,-1,-3,2,0,-6,-2,-5
1563815727039015,-1,0,0,-5,1,9,4,1
1563815727061005,1,0,4,15,7,5,-5,3
1563815727061005,-1,-4,-2,-3,4,-8,-9,0
1563815727062000,-1,-1,0,-7,-10,3,2,-5
1563815727062000,1,-1,-4,-6,-3,-3,-2,7
1563815727075991,-2,-3,-2,-5,-3,3,9,-2
1563815727075991,-2,-2,-8,-1,0,-12,-2,-5
1563815727076992,0,4,6,5,5,-3,-16,-4
1563815727076992,0,-2,-5,-4,-7,-6,5,-3
1563815727098979,0,-1,-5,-5,-2,0,7,6
1563815727098979,1,0,-1,-4,0,7,3,-2
1563815727098979,-1,-1,2,6,4,14,-14,6
1563815727098979,-4,-1,-2,-2,-7,-5,-3,-4
1563815727119966,0,0,-5,-10,-4,-8,-10,-1
1563815727119966,1,1,6,15,6,9,3,0
1563815727127965,2,2,2,-1,4,-1,11,-1
1563815727127965,-3,-2,-2,-7,-13,-8,-32,-10
1563815727134956,-1,-1,-1,-4,-4,-8,0,-2
1563815727134956,-1,-4,-4,-8,-5,3,0,4
1563815727135957,-1,-1,0,0,1,-1,-2,1
1563815727135957,0,-1,-2,4,6,-2,10,-5
1563815727158942,1,2,2,2,0,-12,7,0
1563815727158942,1,0,-2,1,-1,0,-11,-1
1563815727158942,-1,-2,-3,-5,-5,0,2,-1
1563815727158942,0,3,6,6,2,-12,7,4
1563815727180935,0,1,-3,-3,-5,-1,-5,0
1563815727180935,1,0,-2,-2,1,2,3,3
1563815727181938,-2,-2,-2,1,1,1,5,0
1563815727181938,0,-3,-3,5,0,-6,-4,2
1563815727194931,1,-2,-2,-6,-8,2,-8,-11
1563815727194931,2,2,2,7,0,5,10,3
1563815727195923,-2,-1,-2,-4,-2,-9,-7,1
1563815727195923,-1,-3,-2,1,3,4,-11,-6
1563815727218942,-4,-2,1,-1,0,8,21,-2
1563815727218942,0,-4,-6,-11,-7,-4,-1,11
1563815727218942,-4,-2,1,4,1,-2,3,-9
1563815727218942,1,2,-2,-1,3,5,-2,4
1563815727240929,-1,-4,-3,0,-2,-4,-4,4
1563815727240929,-2,0,0,-1,-1,0,3,-5
1563815727241902,-4,-1,0,6,4,9,-21,-5
1563815727241902,0,1,-4,-4,-1,-1,16,0
1563815727254890,2,-2,2,-2,-4,-3,21,13
1563815727254890,-1,1,5,3,5,3,-44,-7
1563815727255904,-1,-1,-3,-6,-8,-6,-7,-4
1563815727255904,-4,-3,-5,-7,-1,6,-4,-17
1563815727278875,-1,-3,-1,7,5,8,2,6
1563815727278875,-1,-1,1,-1,-1,0,20,4
1563815727278875,2,1,-1,4,5,2,2,4
1563815727278875,-1,-1,3,2,5,2,-6,-1
1563815727300864,-3,-3,0,-11,-11,-9,-11,-1
1563815727300864,-3,-1,-1,4,-2,-1,8,-7
1563815727301864,1,-3,-4,-4,-2,-6,3,9
1563815727301864,-1,-3,0,-1,2,-2,7,2
1563815727314862,-1,1,1,8,5,-4,-9,-1
1563815727314862,0,0,2,-1,-1,2,-1,-5
1563815727315854,-3,-5,-1,-3,-5,-5,2,-6
1563815727315854,-1,-2,-5,-7,-4,-6,-1,0
1563815727338840,2,2,1,8,2,-1,-6,-3
1563815727338840,-2,-2,-1,-1,0,10,5,-4
1563815727338840,3,0,-2,-1,-4,-14,-3,3
1563815727338840,-2,0,1,-2,-4,3,21,5
1563815727368823,1,1,-3,-3,-3,-2,-8,-6
1563815727368823,-4,-2,0,3,3,-5,-8,-7
1563815727368823,3,3,3,1,1,2,12,3
1563815727368823,-2,-4,-4,0,3,7,-4,3
1563815727374821,-2,-1,-3,-10,-7,-12,-3,-5
1563815727374821,1,-2,-3,-7,-6,7,-6,6
1563815727375820,-3,-2,-2,-2,-3,2,0,-8
1563815727375820,-3,0,-2,-4,-1,-4,-7,-4
1563815727405802,1,1,5,19,14,13,-2,4
1563815727405802,-2,0,-3,-6,-5,-10,-5,-4
1563815727406804,-3,-4,-5,-1,-3,6,5,-4
1563815727406804,2,0,-1,1,-3,-7,-4,1
1563815727420799,-1,2,3,2,3,-10,-7,-1
1563815727420799,0,-2,-5,-6,-9,-5,-2,-1
1563815727421794,-3,-1,-2,-3,2,14,9,2
1563815727421794,1,2,1,5,-2,-5,-2,-3
1563815727434786,0,-1,5,-3,-2,-5,-26,-8
1563815727434786,-5,-1,-3,0,1,-7,10,-5
1563815727443782,2,3,1,0,-1,3,6,5
1563815727443782,-1,-5,-5,-5,-3,-10,7,6
1563815727457774,-1,0,-5,-9,-4,2,3,-8
1563815727457774,5,0,4,14,5,-1,-10,14
1563815727465768,-3,-2,-1,0,-2,-11,-9,-18
1563815727465768,1,2,-2,-8,-9,-1,-16,0
1563815727480791,-1,-2,-3,-1,-1,-1,8,2
1563815727480791,0,-1,-4,-11,-3,-4,1,5
1563815727481759,-2,-4,0,1,-2,-7,8,3
1563815727481759,-3,-1,3,5,4,4,11,-6
1563815727494759,-1,0,-5,-2,0,-4,-5,1
1563815727494759,-3,-4,-1,1,3,3,-2,-4
1563815727502748,0,2,6,8,4,2,-3,-2
1563815727502748,-2,1,3,-4,-4,-7,-19,-8
1563815727518739,-1,-6,-2,-1,-2,5,18,7
1563815727518739,0,2,-1,1,0,-3,-21,-15
1563815727519738,0,-1,-1,-6,-8,-9,6,13
1563815727519738,-1,-2,-1,-1,3,5,0,-5
1563815727540733,-1,-1,-2,10,4,-4,-3,-7
1563815727540733,1,-1,1,-3,-4,3,3,-8
1563815727542726,-1,-2,-4,-5,1,5,-7,-1
1563815727542726,-3,-2,-1,0,-1,2,-1,2
1563815727554718,1,0,-2,-1,-1,2,16,9
1563815727554718,0,-3,-4,-3,0,-6,9,-3
1563815727563715,-2,0,0,2,-1,6,-20,-8
1563815727563715,3,0,1,3,2,-4,6,5
1563815727578704,-1,-2,-3,-4,4,11,2,3
1563815727578704,-3,-1,-2,-7,-10,-11,26,5
1563815727579703,-1,-3,-2,3,-2,-18,-15,-8
1563815727579703,2,-1,0,3,0,6,14,12
1563815727600690,3,4,-2,-8,-6,-3,-12,2
1563815727600690,-2,1,4,10,2,3,-14,-9
1563815727602688,1,-4,-6,-6,0,-12,18,9
1563815727602688,0,2,2,7,-2,0,-10,-6
1563815727614682,-5,-8,-8,-6,1,-1,18,-1
1563815727614682,2,1,0,-6,-5,-3,-13,12
1563815727623678,-9,-5,-1,-2,-1,3,-4,-30
1563815727623678,0,-3,-2,-2,-2,0,-12,-6
1563815727638671,-1,1,4,7,3,4,10,-2
1563815727638671,-1,-3,-7,-8,-3,-5,-8,2
1563815727639668,0,3,1,5,2,2,-3,4
1563815727639668,0,4,5,2,4,17,-10,-3
1563815727660689,1,0,0,1,-1,-3,-9,-2
1563815727660689,0,2,-1,6,7,14,15,-2
1563815727662656,0,0,-3,-12,-11,-20,-16,6
1563815727662656,0,0,0,2,-2,-4,1,-3
1563815727674653,0,2,4,3,-1,1,7,5
1563815727674653,-1,-6,-2,2,2,1,5,8
1563815727700634,-1,-1,-4,-3,4,18,-1,-7
1563815727700634,-3,-1,0,0,-3,-19,-12,-3
1563815727701634,-2,-3,-3,-1,-3,-5,0,-1
1563815727701634,3,1,0,-4,1,3,6,4
1563815727704632,-1,-3,-1,0,-4,-4,1,-5
1563815727704632,-4,-2,-2,-1,0,8,-3,-7
1563815727720621,1,-1,-7,-4,-3,-7,4,7
1563815727720621,2,2,1,4,4,9,3,-5
1563815727722621,0,-1,1,3,3,6,-13,7
1563815727722621,0,-1,0,-5,-3,0,7,-4
1563815727743610,-1,0,-2,-2,0,8,0,8
1563815727743610,-3,-1,-1,0,2,-6,-10,-13
1563815727744609,-1,-1,0,-3,-3,-7,11,8
1563815727744609,3,-1,-6,-4,-11,-8,-5,-3
1563815727758601,-5,1,1,-2,-3,-1,-11,-1
1563815727758601,-2,-2,-3,3,-2,-3,5,0
1563815727759599,0,-2,-4,-1,4,8,5,3
1563815727759599,0,-2,0,-1,0,1,3,-5
1563815727780608,0,-2,-2,-7,-5,-7,-4,1
1563815727780608,-4,-1,0,2,-1,-7,5,-4
1563815727782585,1,1,2,3,-1,-8,1,2
1563815727782585,0,0,-3,-6,-2,12,14,9
1563815727803577,0,-2,-1,0,-2,-6,-13,-10
1563815727803577,-3,-4,-1,-4,-4,-2,-11,-6
1563815727804573,0,2,-2,-5,0,5,-8,-5
1563815727804573,-2,-3,-2,2,0,-4,-3,0
1563815727818586,-1,1,0,1,-4,-1,3,-2
1563815727818586,0,-2,-1,-6,-5,5,-4,5
1563815727819585,0,1,-3,-3,-5,-5,1,-1
1563815727819585,1,2,5,3,5,6,1,7
1563815727840552,0,1,-1,-1,3,-2,-10,-11
1563815727840552,-1,-1,-2,-4,-2,-3,3,-3
1563815727842551,-2,-1,3,4,1,10,9,3
1563815727842551,1,-2,-3,-3,-1,-13,-2,3
1563815727863560,-3,0,1,0,0,-4,-9,-4
1563815727863560,4,0,1,1,-4,8,2,8
1563815727865537,-3,-1,-1,-2,-1,-8,-12,-15
1563815727865537,-1,1,-1,2,1,-11,19,4
1563815727878534,5,0,-2,6,6,14,13,8
1563815727878534,-1,2,2,-2,2,-2,-6,-1
1563815727879530,-2,-2,-4,-5,-12,-5,2,-9
1563815727879530,0,-1,-1,-5,-1,-5,11,0
1563815727900517,1,0,-2,-1,0,6,-14,-4
1563815727900517,-2,1,1,2,6,6,-4,-4
1563815727902516,-1,-3,-3,1,1,1,7,20
1563815727902516,-5,-5,-5,-8,-6,-9,-12,-5
1563815727923509,-2,-3,0,1,-2,-3,11,1
1563815727923509,-1,-3,-2,-1,-2,0,1,-2
1563815727925505,2,4,7,5,5,1,0,1
1563815727925505,-4,-4,-6,-7,-7,8,-7,-10
1563815727937501,2,-2,-3,-3,-4,-12,-14,6
1563815727937501,-1,-1,0,-2,-3,-4,11,1
1563815727944493,-3,-5,-3,2,-3,-7,-4,-6
1563815727944493,1,2,1,2,7,7,8,2
1563815727961482,2,-1,2,2,4,7,8,-1
1563815727961482,1,1,-1,2,-1,-11,-11,3
1563815727963481,2,-2,-4,-10,-16,-11,-4,-1
1563815727963481,-3,-2,0,1,2,7,1,0
1563815727983470,-8,-2,-4,-3,-3,-1,4,-8
1563815727983470,4,0,-1,7,5,-6,14,13
1563815727985469,1,1,2,1,3,3,-15,-2
1563815727985469,1,0,-2,-4,-8,-6,-12,6
1563815727997481,-3,-3,-5,-6,-3,2,9,-5
1563815727997481,-2,3,3,4,4,11,-11,1
1563815728004458,-1,0,1,5,4,-1,0,-2
1563815728004458,2,1,2,0,2,2,1,5
1563815728021448,-1,0,0,-6,-6,1,6,-3
1563815728021448,-4,-4,-5,-7,-3,-10,-2,-7
1563815728023446,3,2,4,9,5,8,19,12
1563815728023446,0,-1,-3,-4,-3,-9,-28,-25
1563815728043435,-2,-2,-1,-3,-2,-1,-2,0
1563815728043435,-2,-2,-2,1,-6,-5,1,-5
1563815728045434,1,2,2,-2,2,25,5,-2
1563815728045434,0,-1,-2,2,1,-15,-1,3
1563815728057428,-1,-3,0,1,-1,0,-2,4
1563815728057428,-3,-3,-2,-5,-1,-4,-15,-21
1563815728064428,0,-2,-4,-1,1,-3,12,10
1563815728064428,-5,0,3,6,4,1,4,-8
1563815728081418,4,0,-3,-6,-6,0,-12,0
1563815728081418,2,0,1,4,0,-2,7,13
1563815728082414,-3,-3,-1,2,2,-3,-7,-5
1563815728082414,4,0,0,-6,-5,6,-1,4
1563815728103401,-3,0,1,0,-3,-6,5,-8
1563815728103401,-3,-3,0,-1,-6,-7,-9,-2
1563815728105400,0,-3,-10,-11,-5,-8,0,-1
1563815728105400,-2,-2,-2,5,0,5,11,11
1563815728117412,-1,0,3,0,2,1,-11,-9
1563815728117412,-2,-1,-2,-3,0,-2,0,-6
1563815728124409,4,3,3,2,7,8,-1,7
1563815728124409,-5,-1,-2,1,0,0,-15,-15
1563815728141379,-3,-2,-2,-1,-1,3,19,7
1563815728141379,-4,1,1,-5,-3,-9,-7,-9
1563815728142379,0,-4,-4,-2,-4,-17,1,7
1563815728142379,1,3,2,2,1,8,-3,-4
1563815728163366,-1,1,2,5,4,0,-1,5
1563815728163366,-3,-2,-1,-3,3,2,-6,-9
1563815728165385,-3,-3,-1,-2,-4,1,4,6
1563815728165385,-1,-5,-5,-3,-4,1,1,6
1563815728186354,-1,1,3,-5,-8,-1,-2,-9
1563815728186354,2,0,-3,0,-2,1,3,15
1563815728187373,-2,-1,3,-5,1,-15,-18,-12
1563815728187373,-2,-7,-3,7,4,-1,6,6
1563815728201344,0,0,-4,-4,-2,-3,-1,-2
1563815728201344,3,-1,-3,-2,2,14,20,7
1563815728202344,-1,2,2,4,-2,-2,1,-5
1563815728202344,-5,-3,-3,-7,-4,-12,-16,-12
1563815728223332,1,1,1,4,5,6,-1,6
1563815728223332,-1,-3,-2,1,-3,-1,8,8
1563815728225332,-4,-4,-3,-5,-3,-3,-8,-13
1563815728225332,5,3,5,7,5,5,14,9
1563815728238324,-2,-2,-4,-4,-4,-7,-17,-16
1563815728238324,-2,-1,-3,-10,-10,-6,-8,0
1563815728244320,-2,0,0,8,6,4,9,-4
1563815728244320,0,4,3,-5,0,12,-33,5
1563815728261311,-2,-3,-2,1,4,0,0,-3
1563815728261311,-1,-3,-2,1,-3,0,-5,-7
1563815728262310,1,-5,-6,-6,-6,-3,-1,0
1563815728262310,-2,1,3,6,3,1,19,-1
1563815728283299,3,5,3,2,4,-5,2,13
1563815728283299,-1,1,0,-2,-3,-11,0,-3
1563815728285297,-1,-2,-3,-1,1,17,-11,-10
1563815728285297,0,-2,-4,1,1,-2,14,2
1563815728297290,1,0,5,3,1,2,-6,-4
1563815728297290,-1,-2,2,0,0,-2,2,2
1563815728306286,2,-1,0,-4,0,0,-2,9
1563815728306286,-5,-4,-4,1,-8,-22,2,-12
1563815728321276,-3,-2,-3,3,4,-4,-2,-3
1563815728321276,5,2,2,-2,-2,7,6,9
1563815728322276,-1,1,1,1,1,4,-10,-7
1563815728322276,-2,-3,-1,-5,-3,-2,-1,3
1563815728351260,-3,-4,-2,-3,-4,-6,-3,-6
1563815728351260,-1,-3,0,8,5,6,2,-5
1563815728352259,0,-2,-2,-4,-4,-6,-7,0
1563815728352259,4,1,-1,-7,1,-3,-1,8
1563815728357257,-3,0,1,5,1,-1,0,-4
1563815728357257,0,1,2,-1,1,-6,3,0
1563815728366253,2,1,-3,-5,-6,-5,5,5
1563815728366253,6,7,6,7,8,20,-6,3
1563815728381241,-2,-5,-3,-3,-2,-2,5,2
1563815728381241,-2,-1,-1,1,2,4,-7,-6
1563815728382241,0,2,1,-6,-9,-6,-10,3
1563815728382241,-3,-5,-8,-3,0,-2,2,-5
1563815728404228,0,1,3,-9,-10,-6,-8,-4
1563815728404228,2,0,1,6,0,5,0,7
1563815728409228,-5,0,1,-4,-2,-1,4,-9
1563815728409228,0,-4,-1,0,0,0,-3,-2
1563815728433212,1,-3,-3,-3,-2,-16,19,9
1563815728433212,-3,-2,-1,1,4,1,1,-7
1563815728435210,0,-3,-4,-4,-7,-7,5,11
1563815728435210,-2,1,0,-3,0,2,-5,-7
1563815728441208,1,-1,-4,0,-2,5,-2,-3
1563815728441208,-2,-2,1,-5,-4,-2,0,-3
1563815728442207,-2,-2,-2,7,9,3,7,2
1563815728442207,3,3,6,7,0,-6,-7,-4
1563815728463194,-2,0,-5,-9,-9,4,10,4
1563815728463194,2,-2,-5,-3,-2,2,-12,8
1563815728465195,-4,-2,3,5,3,2,-13,-6
1563815728465195,1,-1,-2,-2,1,7,-7,-3
1563815728477188,3,1,5,4,3,13,-4,3
1563815728477188,-4,-4,-4,-5,-3,-16,-6,-5
1563815728486181,1,0,0,0,-4,0,6,4
1563815728486181,-3,-1,2,6,5,2,-11,-10
1563815728501173,0,-4,-1,0,2,4,3,7
1563815728501173,-3,-5,-7,-8,-4,-1,-2,0
1563815728502172,-2,-1,1,4,5,6,-3,-6
1563815728502172,-1,-2,-3,-7,-8,-2,11,6
1563815728523179,-1,1,-2,-3,-1,-7,-6,-1
1563815728523179,-1,-1,-1,4,1,12,-5,-17
1563815728525159,5,5,3,2,1,-14,4,11
1563815728525159,-4,-3,0,2,-2,-10,-8,-6
1563815728537152,-1,0,-1,-8,-11,1,16,0
1563815728537152,-1,0,-2,-1,0,6,-3,3
1563815728546166,-3,-5,-3,-1,0,-2,8,1
1563815728546166,-1,-2,-3,-1,4,-2,9,2
1563815728561137,-2,-1,1,0,1,-6,-32,-7
1563815728561137,0,2,3,2,1,5,6,-1
1563815728562138,-1,0,-3,-3,-4,0,-12,-10
1563815728562138,2,-2,1,0,-1,-3,13,10
1563815728583126,-4,-3,-4,-3,1,5,-22,-8
1563815728583126,0,0,3,1,1,-3,-5,-1
1563815728585124,1,0,1,-3,4,5,5,-1
1563815728585124,1,-2,-2,-2,-3,-3,8,9
1563815728597118,-3,-4,-4,5,6,0,1,-8
1563815728597118,-4,-2,-4,-9,-10,-15,4,-5
1563815728606114,-2,2,1,-1,-3,2,2,-4
1563815728606114,1,1,0,1,-1,3,0,4
1563815728621105,2,1,0,1,0,-7,8,0
1563815728621105,0,-1,-2,2,1,4,-1,4
1563815728627119,-1,-1,2,2,2,-1,4,1
1563815728627119,-2,-2,-3,-4,-1,2,3,-4
1563815728643092,-3,-2,-2,1,0,-4,-6,0
1563815728643092,-2,2,1,-6,-9,-12,11,-2
1563815728645091,0,-3,-9,-1,0,10,0,0
1563815728645091,-1,0,0,-4,-1,-6,-12,-9
1563815728657083,2,-1,1,6,0,-2,3,10
1563815728657083,-1,-1,-4,-5,-6,-9,0,3
1563815728666078,-2,-1,0,3,1,1,-4,-6
1563815728666078,0,2,1,-2,-1,-6,6,8
1563815728681069,-4,-4,1,7,5,10,-2,-14
1563815728681069,-1,-2,0,-3,-2,6,1,0
1563815728682069,1,-1,-3,-8,-6,-6,-6,0
1563815728682069,-2,-4,-5,-3,-1,1,-5,-5
1563815728703061,2,-1,-4,-4,-2,-2,8,12
1563815728703061,-4,0,7,9,5,5,-11,-9
1563815728705057,-3,-4,-2,-1,1,-4,7,2
1563815728705057,-3,-3,-2,-2,-4,-2,0,-3
1563815728717050,1,3,-4,-10,-6,-3,-6,1
1563815728717050,1,0,3,8,5,-7,-6,1
1563815728726044,-2,0,-1,-6,-3,18,12,0
1563815728726044,-4,-1,-3,-1,-3,-10,-17,-9
1563815728741035,0,0,0,0,-1,10,-1,0
1563815728741035,0,1,1,0,5,-3,-8,-2
1563815728742037,0,-1,2,5,-1,-6,-3,-3
1563815728742037,4,-1,-2,-1,1,7,8,12
1563815728763041,-2,0,-4,-1,-4,-10,-14,-2
1563815728763041,-3,-4,-6,-9,-7,-3,1,-8
1563815728765021,1,-2,0,-6,-7,-7,7,8
1563815728765021,1,2,2,3,4,11,9,-5
1563815728793010,0,1,3,4,1,3,-8,-7
1563815728793010,1,-1,-5,-2,-2,-1,-5,9
1563815728795004,-3,-2,1,1,1,-8,-2,-13
1563815728795004,3,2,2,1,-1,10,11,13
1563815728801004,-1,-3,2,-1,-2,-14,2,-3
1563815728801004,-1,-3,-6,1,0,3,6,-2
1563815728803000,2,2,2,-3,1,0,-16,6
1563815728803000,-4,-1,-4,-6,-8,-2,-4,-3
1563815728823008,-4,-1,1,2,0,-2,0,-4
1563815728823008,0,-1,-2,0,0,0,10,5
1563815728824987,0,-1,2,7,5,3,-4,0
1563815728824987,-2,-3,0,-1,-1,1,-4,-10
1563815728845995,-2,-4,-6,-4,-2,-13,-12,-1
1563815728845995,-1,0,-2,-9,-4,0,9,1
1563815728847976,1,0,1,-7,-6,-1,-17,-4
1563815728847976,-2,-1,-4,1,-1,0,9,3
1563815728860985,0,-3,1,0,2,1,9,0
1563815728860985,0,-2,-3,0,1,1,-13,-2
1563815728862964,-2,-2,-4,3,-2,-13,5,0
1563815728862964,-3,1,1,-2,-4,-4,-5,-7
1563815728882973,3,0,1,2,4,6,18,9
1563815728882973,1,2,4,2,1,6,-17,-6
1563815728884954,-1,-4,-5,-4,-2,-3,6,-1
1563815728884954,-3,-4,-5,-3,-4,-10,-23,-13
1563815728905941,1,0,0,2,-2,3,16,13
1563815728905941,0,-1,0,-3,0,-1,4,-2
1563815728907939,1,2,4,4,1,1,7,3
1563815728907939,-5,-4,-5,-3,0,-12,2,-8
1563815728919933,-3,-4,-2,-6,-3,2,-5,-11
1563815728919933,0,-1,-4,-1,-1,-3,0,3
1563815728926948,-1,1,1,8,2,2,1,-1
1563815728926948,0,-2,3,0,1,-2,5,7
1563815728943919,-1,0,-4,-3,2,7,11,-7
1563815728943919,1,-1,-3,-3,-4,-7,-21,5
1563815728944919,-5,-5,-2,-5,-2,-4,10,-4
1563815728944919,0,0,3,8,4,11,1,-2
1563815728965906,4,2,2,1,1,1,15,17
1563815728965906,0,-1,-6,-6,-7,12,1,-9
1563815728967906,-1,1,0,-2,-2,-15,-22,-4
1563815728967906,0,-3,-5,-6,-5,-7,1,0
1563815728979903,-2,-4,-5,-3,0,0,5,0
1563815728979903,-2,1,6,6,-2,-7,-9,-1
1563815728986894,-1,-1,-3,-8,-4,6,-1,3
1563815728986894,-3,0,3,2,-1,-14,-5,-14
1563815729003885,1,0,-1,-4,0,6,-6,0
1563815729003885,-2,-3,-3,-3,0,1,5,1
1563815729004884,-1,1,0,-1,1,3,5,-6
1563815729004884,2,0,1,2,-1,-7,-7,9
1563815729025929,-2,-3,1,2,3,-1,-5,-7
1563815729025929,0,2,-5,-8,-6,-3,12,4
1563815729027870,0,1,1,4,0,1,-3,2
1563815729027870,0,-1,-2,-4,-3,4,11,8
1563815729039867,-2,-1,2,5,0,2,-17,-9
1563815729039867,4,0,1,-6,-5,-11,10,9
1563815729046863,-7,-7,-10,-3,-5,4,6,-19
1563815729046863,1,-2,-4,-3,1,-3,-6,1
1563815729062860,-3,0,1,-2,-8,-6,-8,-1
1563815729062860,-2,-4,3,1,2,-7,5,1
1563815729069879,4,0,2,-3,3,19,15,6
1563815729069879,-4,-1,2,7,0,0,-23,-7
1563815729085839,-2,-4,-8,-9,-2,-6,3,5
1563815729085839,-2,-2,3,5,3,2,-3,-11
1563815729087843,1,1,-6,-6,-1,-7,-3,3
1563815729087843,2,-1,-1,0,0,6,13,6
1563815729100830,-1,1,-3,-6,-7,-2,-13,3
1563815729100830,-5,-2,1,5,-1,-6,6,-3
1563815729106827,2,0,1,-3,0,-7,-6,-6
1563815729106827,-1,0,0,1,1,5,10,4
1563815729123817,0,0,1,6,-1,-1,-8,-3
1563815729123817,-2,0,0,-5,-1,6,6,3
1563815729124818,-2,-2,-5,1,-1,-3,-6,-7
1563815729124818,4,2,6,-1,-1,-7,-2,8
1563815729145804,-1,2,4,-3,-2,2,6,-7
1563815729145804,-3,-2,-2,2,5,4,-9,-11
1563815729147808,0,0,0,1,3,5,6,4
1563815729147808,-1,2,-1,-5,-3,-1,-16,-4
1563815729159804,1,-1,-6,-5,-3,-4,-3,5
1563815729159804,0,-2,1,7,-1,-2,0,8
1563815729166792,1,2,4,6,4,-7,-6,-4
1563815729166792,0,-3,-9,-10,-4,9,-5,-4
1563815729183809,-3,-3,2,-5,0,2,2,-2
1563815729183809,3,0,-2,3,0,5,-10,-1
1563815729184783,2,-4,-3,-4,-2,-4,-6,8
1563815729184783,-6,-3,2,-1,-3,2,8,-3
1563815729205770,-1,1,0,6,6,-2,-10,-9
1563815729205770,0,2,0,0,7,10,-2,2
1563815729207769,-4,-3,0,-2,-8,-7,-9,-1
1563815729207769,1,5,4,1,-1,7,-15,-8
1563815729220760,-2,-6,-2,1,4,5,12,1
1563815729220760,-2,-2,-2,-1,-2,-11,-3,-2
1563815729226760,-1,-4,-3,-4,4,11,-3,4
1563815729226760,-4,-2,0,8,5,-3,10,-1
1563815729243751,1,-1,-2,-5,-10,-11,-13,4
1563815729243751,0,0,-1,5,3,3,-4,-2
1563815729244746,-1,-2,-5,-11,-10,-5,-1,0
1563815729244746,-4,-2,-6,-4,-2,-3,-9,-8
1563815729265739,-4,-2,3,2,1,1,16,5
1563815729265739,-1,-1,-1,1,0,-3,-3,-9
1563815729267734,-1,1,3,-1,2,-4,3,3
1563815729267734,1,-4,-4,-1,-2,1,10,10
1563815729279728,1,2,-1,1,1,-1,-2,-5
1563815729279728,-1,1,2,0,1,-5,1,4
1563815729295716,1,0,-2,-5,-11,-7,-10,-3
1563815729295716,2,-1,-2,-2,0,0,6,5
1563815729303713,-3,-2,0,-7,-1,2,-3,-7
1563815729303713,0,-1,1,2,-2,2,2,1
1563815729304712,-1,0,0,6,5,8,1,-6
1563815729304712,1,-1,-1,0,0,-6,-8,11
1563815729325700,0,5,1,1,0,1,0,-6
1563815729325700,-2,1,-2,-7,-4,3,12,1
1563815729327698,0,0,-4,0,-1,-3,-3,1
1563815729327698,-4,-1,-1,-3,-1,6,-2,-15
1563815729348692,1,0,-2,0,0,7,0,9
1563815729348692,-2,2,2,1,-1,-5,-7,-9
1563815729349686,0,-2,1,5,1,-2,-2,5
1563815729349686,3,-1,4,2,3,-2,-1,0
1563815729363680,0,-1,-1,0,1,1,10,0
1563815729363680,-1,-3,-3,-4,-4,-6,-5,4
1563815729364679,1,1,-1,-2,1,0,3,1
1563815729364679,-5,-4,1,2,-6,3,-10,-3
1563815729385689,-1,-3,-4,-6,-3,-1,2,-3
1563815729385689,2,-4,-5,1,-1,-2,-1,-1
1563815729387665,-2,-1,3,4,3,-5,-10,-9
1563815729387665,-1,0,-2,-8,-6,-3,8,5
1563815729408652,1,-2,-2,-2,-4,-7,1,3
1563815729408652,1,-3,-2,-1,1,18,5,5
1563815729410652,-1,1,2,1,1,-6,1,-3
1563815729410652,-1,2,-3,-5,-5,-9,-9,-7
1563815729423648,1,-3,-3,0,0,8,9,12
1563815729423648,-1,0,0,-2,-1,-9,-7,-14
1563815729424643,1,0,-1,-1,0,2,-3,0
1563815729424643,-3,-4,-4,-3,0,-5,6,2
1563815729445637,-4,-1,1,2,-1,-6,-10,-13
1563815729445637,1,-1,0,8,5,2,10,8
1563815729447633,-4,-1,-3,-11,-8,2,-4,-5
1563815729447633,-1,-1,-2,-1,-4,-12,-7,-2
1563815729459623,1,2,-4,2,4,10,-10,-5
1563815729459623,0,-1,-2,-5,-3,1,20,14
1563815729468618,-4,-3,-2,-3,-2,-4,0,-6
1563815729468618,-5,-4,-2,-2,-5,-10,-10,-9
1563815729483610,0,0,3,5,4,10,7,5
1563815729483610,-2,0,3,-1,-2,-3,-19,-10
1563815729484610,1,1,-1,5,1,-13,-3,4
1563815729484610,-1,-2,-5,-10,-4,1,19,-3
1563815729505598,-4,-3,1,3,0,-6,-1,-4
1563815729505598,1,1,-1,-6,-2,4,4,2
1563815729507597,0,-2,-2,0,-2,1,10,6
1563815729507597,-1,3,3,7,4,8,-17,-13
1563815729519592,-3,-1,-3,-5,-4,-15,-2,1
1563815729519592,-2,-5,-4,-2,1,2,2,-2
1563815729528584,-1,-2,1,3,3,-1,-1,-2
1563815729528584,4,3,2,-2,-5,2,10,14
1563815729543576,-2,-2,-3,-3,-4,-4,-3,-9
1563815729543576,-3,0,1,0,0,0,-9,-7
1563815729544575,2,1,-2,3,1,2,3,-3
1563815729544575,2,-2,-3,0,1,5,5,6
1563815729565563,-1,-1,-1,-4,-3,-5,2,9
1563815729565563,1,-1,1,2,-1,-1,5,2
1563815729572558,0,0,3,5,0,11,-10,-5
1563815729572558,0,0,-2,-2,3,11,8,-1
1563815729579560,-1,-2,0,3,-7,-21,-24,-6
1563815729579560,-1,-2,-2,-8,-3,-4,10,6
1563815729594546,-2,-1,-3,-3,-6,2,-2,-7
1563815729594546,0,-1,1,4,4,-5,-1,4
1563815729603541,0,0,0,3,3,4,-1,-3
1563815729603541,0,1,-2,3,-1,-3,2,1
1563815729604541,-1,-5,-3,-6,-5,-3,-3,0
1563815729604541,-2,-3,-5,-5,-3,-3,1,-7
1563815729626528,0,3,0,-5,-4,2,4,-2
1563815729626528,0,0,0,3,3,11,-6,6
1563815729627527,-2,0,-2,-1,-2,-8,-1,4
1563815729627527,-1,-2,-1,-1,3,5,-3,-2
1563815729648515,0,-2,-1,3,2,0,17,0
1563815729648515,-1,0,-1,-4,-4,-8,-15,-6
1563815729649515,1,2,6,3,6,4,10,4
1563815729649515,1,1,2,2,-4,-3,2,5
1563815729663506,-1,-1,-4,-10,-10,-8,2,3
1563815729663506,-5,-1,-7,-6,-4,12,-3,-14
1563815729664506,0,0,-3,-2,-2,-17,-7,3
1563815729664506,-3,0,3,6,4,-2,-2,-3
1563815729685495,2,5,5,-3,-2,4,-7,2
1563815729685495,-5,-4,-3,3,-3,-13,-4,-2
1563815729687492,3,-3,0,1,4,13,6,12
1563815729687492,-4,-3,-4,-6,-3,0,-11,-8
1563815729708480,-1,0,0,-1,-6,-10,-15,-2
1563815729708480,1,-1,2,-2,-2,3,-9,0
1563815729710479,0,0,1,1,0,0,0,3
1563815729710479,-1,-2,-3,0,2,-6,4,-9
1563815729723471,1,-2,1,-2,3,4,-4,6
1563815729723471,0,-2,-4,2,-3,-4,3,4
1563815729725470,-1,-1,-3,3,0,-3,-7,-14
1563815729725470,2,2,1,-3,-4,-4,2,8
1563815729745460,-4,-2,0,7,5,6,-3,-17
1563815729745460,-2,1,0,-2,-2,-16,5,-2
1563815729747458,0,-2,-6,-12,-8,3,15,7
1563815729747458,1,0,0,-3,-4,4,-25,-6
1563815729768449,-1,-4,-7,-1,-4,-16,3,6
1563815729768449,1,0,4,1,0,2,11,4
1563815729770444,-2,2,1,3,1,0,-16,-6
1563815729770444,1,-2,-1,0,0,-3,0,0
1563815729783437,-2,-2,1,1,2,6,4,1
1563815729783437,-2,-2,-3,-3,1,-6,-9,-3
1563815729785436,0,-1,-1,-3,-8,5,1,-2
1563815729785436,-2,-1,1,-2,-1,2,3,2
1563815729806424,-4,2,0,2,1,-1,-4,3
1563815729806424,1,0,0,5,7,4,1,-2
1563815729807423,-2,1,3,0,2,-4,-2,1
1563815729807423,-1,-2,-1,4,-2,-8,8,2
1563815729828412,2,1,3,-4,-1,4,7,1
1563815729828412,-1,-3,-1,-2,-3,-5,-13,2
1563815729830410,0,-3,-2,-4,2,8,15,8
1563815729830410,1,-1,-5,-3,-6,-1,-4,-6
1563815729851398,-4,-2,-2,0,-2,-4,-12,-12
1563815729851398,-1,1,2,-2,2,6,10,-2
1563815729852397,-2,-2,-2,2,1,-5,9,2
1563815729852397,-3,-5,-4,-5,-2,-7,11,9
1563815729866389,1,1,-2,-1,1,3,6,1
1563815729866389,-1,0,-1,-3,-8,-3,0,-6
1563815729868388,-1,2,1,5,2,0,-12,-4
1563815729868388,-2,1,4,5,4,-4,7,0
1563815729888377,2,-2,-1,-1,0,16,-3,-1
1563815729888377,-4,-4,-1,0,0,-4,-7,-2
1563815729890376,0,-2,-4,0,1,2,10,-4
1563815729890376,-1,-1,-3,-3,1,1,-15,-4
1563815729903368,-2,-4,-3,-1,-5,-9,3,1
1563815729903368,0,0,1,2,0,9,5,-3
1563815729909370,-1,-4,-2,-6,-10,-10,-10,3
1563815729909370,-2,1,-1,1,3,0,-6,-10
1563815729926356,-1,-2,-2,1,4,7,-4,1
1563815729926356,1,-3,-6,-2,1,13,9,2
1563815729927356,1,1,4,1,-3,-12,-9,4
1563815729927356,-2,-5,-2,2,1,4,4,0
1563815729948376,2,4,2,3,1,5,6,1
1563815729948376,-1,-1,-2,-8,-4,-11,1,7
1563815729950347,-1,1,2,4,3,4,-17,-7
1563815729950347,2,2,-2,-4,-1,-3,5,8
1563815729963335,-2,-2,0,0,0,8,-1,-5
1563815729963335,-6,-3,-3,-3,-4,-8,-12,-21
1563815729969333,0,-2,-2,-3,-2,1,7,4
1563815729969333,0,2,2,-4,-1,4,4,2
1563815729986329,-1,0,1,11,4,-10,-6,-1
1563815729986329,1,5,-3,-13,-9,-5,-7,1
1563815729987322,-2,-1,-4,-2,-4,1,-4,-4
1563815729987322,0,-1,-3,-1,4,15,-25,0
1563815730007316,0,0,-2,-2,-3,0,11,9
1563815730007316,1,0,2,5,3,-1,-5,-1
1563815730016306,-2,-2,-2,-1,3,4,13,-4
1563815730016306,-2,-4,-1,-2,-9,-16,-7,-10
1563815730022301,-2,-5,-7,-6,-4,-9,6,7
1563815730022301,1,-2,2,3,2,2,12,9
1563815730029298,-1,1,1,-1,2,0,-14,-9
1563815730029298,1,0,-4,-1,-2,-9,14,3
1563815730046288,0,-2,1,6,7,1,6,-5
1563815730046288,0,-1,-3,-4,-3,-1,-5,11
1563815730047287,-6,-5,-1,-5,-12,-10,-9,-17
1563815730047287,-1,0,-1,-2,-5,-8,18,4
1563815730068283,-6,-2,-1,0,2,-3,-24,-8
1563815730068283,5,1,1,1,5,2,21,11
1563815730070275,-4,-2,-3,-4,-3,-9,-30,-15
1563815730070275,-2,-1,0,-1,0,4,2,-2
1563815730082267,-1,0,-2,-1,-1,-3,4,0
1563815730082267,2,1,2,6,9,7,9,14
1563815730089263,2,4,0,-2,0,5,7,2
1563815730089263,-2,-3,-1,-2,-3,3,5,2
1563815730106275,0,0,1,1,-2,-18,-18,-14
1563815730106275,-3,-4,-2,-1,-5,-5,8,-4
1563815730107252,3,0,-3,1,1,2,-4,7
1563815730107252,0,1,1,4,6,10,-1,-1
1563815730128265,-1,0,2,-6,-3,9,0,-3
1563815730128265,-7,-5,-2,4,-4,-7,-12,-7
1563815730130239,2,-1,-1,1,3,-3,-1,6
1563815730130239,-3,0,1,-1,-6,-8,-11,-6
1563815730143239,1,-2,-5,-11,-8,5,7,5
1563815730143239,-4,-1,0,1,-2,-18,-24,-17
1563815730149290,-2,-4,-4,-3,-2,7,16,7
1563815730149290,-2,2,4,5,7,7,4,0
1563815730166219,-2,1,-2,-3,1,0,4,-5
1563815730166219,1,1,0,-3,-5,-2,-15,1
1563815730167221,-3,-2,1,-1,-2,-5,9,1
1563815730167221,-3,-3,-4,-4,0,1,-5,-8
1563815730188243,3,2,2,-3,-3,1,7,7
1563815730188243,2,2,4,2,1,10,10,5
1563815730190207,-1,-1,0,-3,-1,-11,-10,-2
1563815730190207,-2,-2,-4,-2,-3,-2,-1,-8
1563815730202229,0,-3,-2,0,1,1,-4,0
1563815730202229,1,0,-3,-4,-2,0,-13,-8
1563815730211194,-2,1,5,7,2,8,19,-1
1563815730211194,1,-4,-3,-6,0,-7,-10,7
1563815730226184,-1,-2,-4,-2,-1,-3,-8,0
1563815730226184,2,4,2,4,1,-9,-8,-5
1563815730227185,-1,2,0,-6,-3,13,0,-4
1563815730227185,0,2,2,5,0,-1,0,4
1563815730256168,1,-5,-1,-2,1,8,7,4
1563815730256168,-2,-1,-2,1,-3,-1,1,0
1563815730257168,1,0,-1,1,5,-4,3,1
1563815730257168,0,0,-1,5,4,5,7,5
1563815730262206,-2,-2,3,-3,-6,-2,0,-6
1563815730262206,0,-1,-5,-8,-8,0,3,-1
1563815730271162,0,-3,-1,2,1,-3,-2,5
1563815730271162,1,3,1,0,2,11,-6,-1
1563815730293205,0,1,1,3,3,1,5,5
1563815730293205,-3,-2,-1,9,8,2,3,-7
1563815730295145,-3,-2,-1,-5,-2,-2,1,-4
1563815730295145,1,-1,-3,-10,-11,-6,0,0
1563815730308145,1,2,2,7,-1,-3,13,7
1563815730308145,0,-3,-3,-2,2,4,-15,0
1563815730310138,-2,-1,-2,-2,-2,-5,-1,4
1563815730310138,-2,-1,-2,5,2,0,2,-5
1563815730322161,4,6,3,4,-2,-8,-12,4
1563815730322161,-2,-3,-1,-3,2,6,10,-4
1563815730331158,0,0,0,-1,2,4,-9,-10
1563815730331158,2,-2,-1,-2,-4,-2,12,12
1563815730347123,-1,1,0,-2,-2,-6,-12,-8
1563815730347123,-1,-1,-1,-4,2,1,0,1
1563815730348115,-3,-4,-7,-6,-10,-10,2,-2
1563815730348115,-3,0,-2,2,0,1,-5,-7
1563815730368103,1,1,1,5,4,5,-1,1
1563815730368103,0,1,-1,-8,-5,5,8,-1
1563815730370103,-2,-4,-2,2,-1,-14,1,12
1563815730370103,-2,1,-3,-5,-1,-6,-14,-17
1563815730382096,-3,-6,-1,5,2,-2,-15,-7
1563815730382096,-1,0,0,-5,-7,-4,-1,2
1563815730391091,2,-1,-2,-4,-3,11,15,5
1563815730391091,-4,-4,-5,-5,1,-11,-18,-3
1563815730406083,-4,1,0,-3,-10,-13,14,-1
1563815730406083,-3,-3,-2,1,-1,-1,-14,0
1563815730408081,0,-2,2,3,3,0,-2,-1
1563815730408081,2,1,2,-1,-1,1,4,0
1563815730428070,-2,-2,-2,-2,2,5,2,-4
1563815730428070,-2,-2,0,-6,-7,-18,3,1
1563815730430069,1,3,1,3,1,-6,4,3
1563815730430069,-2,-3,-1,2,0,6,-2,-10
1563815730442060,-1,-3,-7,-6,-4,-6,-8,0
1563815730442060,0,-2,-4,-5,-2,-2,12,3
1563815730458051,-2,-1,2,8,5,6,-13,-3
1563815730458051,-1,0,-1,-4,2,4,7,-2
1563815730466068,2,0,2,6,1,-7,4,3
1563815730466068,1,2,-1,-1,1,7,14,2
1563815730467046,1,-1,-3,-8,-5,-9,-22,-8
1563815730467046,-1,-2,-1,4,-4,3,6,11
1563815730488032,-7,-3,0,-3,-1,0,-12,-15
1563815730488032,0,3,-2,1,3,6,-2,-3
1563815730490032,3,0,-3,-3,2,3,8,8
1563815730490032,-3,0,2,4,1,-2,-2,-1
1563815730502026,-3,-1,-4,-13,-8,3,3,-10
1563815730502026,0,2,4,1,4,0,-9,-5
1563815730511020,-1,3,1,3,-6,-8,-5,-5
1563815730511020,2,-1,-1,1,2,-1,2,6
1563815730526011,-2,-2,-4,-6,-2,-5,6,2
1563815730526011,-1,-2,-2,2,0,0,-7,-1
1563815730527014,0,0,-1,-4,3,15,12,1
1563815730527014,-1,-4,-2,-2,-4,-7,-3,1
1563815730548000,-1,0,3,3,0,6,-7,-3
1563815730548000,0,-1,-4,0,-2,-8,6,8
1563815730550003,-6,-1,2,1,-3,-9,-18,-17
1563815730550003,2,2,2,1,5,4,19,2
1563815730561990,-1,-5,-9,-7,-9,-2,-13,4
1563815730561990,-2,-1,0,0,-5,-2,0,-5
1563815730570986,2,-1,1,3,4,-1,17,6
1563815730570986,1,0,-1,-2,-1,-2,-3,-12
1563815730584981,3,3,6,-1,4,5,-3,11
1563815730584981,-6,-3,-3,11,5,-1,-7,-12
1563815730585979,-1,1,1,3,3,2,21,2
1563815730585979,-5,-4,-2,-1,-4,-3,-25,-1
1563815730607964,-2,-2,-2,-1,1,1,8,-6
1563815730607964,1,-2,-4,-10,-2,0,7,4
1563815730607964,-1,0,4,3,0,-1,-11,-8
1563815730607964,-2,-2,-6,-5,-3,-3,-3,0
1563815730629955,0,0,0,1,2,4,0,0
1563815730629955,-1,3,2,2,0,5,-7,0
1563815730630952,-2,-1,-4,-7,-5,-16,1,0
1563815730630952,-2,0,0,-11,-11,-6,0,6
1563815730644944,0,-3,-1,-1,2,-5,0,0
1563815730644944,0,2,4,3,1,3,6,1
1563815730645943,-1,-2,0,0,1,7,-5,-1
1563815730645943,-1,-1,-1,-1,1,-8,-1,1
1563815730667949,-1,-4,-3,-4,-2,4,2,1
1563815730667949,-3,3,4,5,1,-16,-6,-1
1563815730668932,-1,-2,-1,0,0,15,-13,-7
1563815730668932,-2,0,-1,3,-4,-10,-14,-3
1563815730689923,0,3,3,2,7,12,2,4
1563815730689923,1,-3,1,-2,2,3,-2,0
1563815730690917,-3,-5,-9,-6,-8,-1,5,-4
1563815730690917,3,0,3,3,6,10,1,8
1563815730704913,-1,-4,-5,0,-4,-4,7,3
1563815730704913,2,4,3,0,-4,-9,7,5
1563815730705908,0,1,0,-3,-4,-9,-7,-5
1563815730705908,0,-2,-6,-7,-4,-6,3,-3
1563815730743890,0,2,-1,7,0,0,-3,-4
1563815730743890,-2,-5,-5,-7,-6,-2,-1,-2
1563815730743890,-1,-1,-2,3,4,1,7,3
1563815730743890,-1,0,2,-3,-1,4,4,-4
1563815730749883,4,4,6,10,-1,-9,-3,4
1563815730749883,0,-4,-4,-3,-1,-2,6,0
1563815730750883,0,-2,-1,-2,2,2,3,8
1563815730750883,-2,3,1,2,4,5,-11,-9
1563815730764877,-2,-3,-2,-3,-3,-5,-2,-8
1563815730764877,1,-2,-2,-5,-4,-1,-4,2
1563815730765874,-1,-2,-3,0,1,4,2,8
1563815730765874,-1,0,3,4,2,-2,12,-2
1563815730787881,-5,-3,-4,-11,-9,-4,-9,-3
1563815730787881,-4,-3,-3,0,1,-4,-5,-8
1563815730794914,-1,-2,-2,-1,-2,-6,-1,-3
1563815730794914,0,0,1,0,-3,11,-2,8
1563815730809871,-5,-4,-7,-9,-2,-12,-10,-12
1563815730809871,2,0,0,-3,-3,-3,-2,1
1563815730810848,1,3,3,2,6,8,2,1
1563815730810848,0,-1,-2,1,0,5,7,0
1563815730824885,1,-1,-1,-2,2,2,5,6
1563815730824885,-5,0,2,6,1,1,-8,-8
1563815730825840,1,-1,-1,-1,0,-5,-5,2
1563815730825840,2,-1,2,-2,-2,3,4,0
1563815730847849,0,-1,-2,-4,-2,0,0,4
1563815730847849,-2,-1,-1,2,1,5,0,0
1563815730848849,-3,-3,-3,-2,-3,-8,-11,-5
1563815730848849,1,0,-1,-4,-2,1,7,8
1563815730869822,-1,-1,-5,-2,3,4,0,-3
1563815730869822,2,0,2,0,1,0,4,6
1563815730870817,-4,0,1,3,1,5,11,3
1563815730870817,-3,-4,-3,0,3,3,-29,-12
1563815730884807,-2,-3,0,-2,-11,-6,1,-3
1563815730884807,1,-1,4,3,-1,8,2,2
1563815730885805,-3,-1,-6,-7,-1,-6,-17,-4
1563815730885805,-3,0,1,3,4,-6,12,0
1563815730907854,-2,2,3,6,5,0,-6,-4
1563815730907854,-4,-3,-4,-4,1,0,-6,-4
1563815730908814,2,0,0,-7,-10,2,-2,2
1563815730908814,2,1,0,-1,0,4,11,11
1563815730929814,0,-1,-1,0,-2,-3,-21,-14
1563815730929814,-2,-3,-4,-3,-1,-1,9,2
1563815730930788,1,1,-1,2,1,-5,-6,-2
1563815730930788,1,3,1,0,-3,-5,1,2
1563815730944781,0,-2,-1,-1,2,10,16,8
1563815730944781,1,0,-5,-1,2,1,-7,2
1563815730945772,-2,2,6,2,0,4,2,-8
1563815730945772,-2,-5,-5,-1,-5,-7,-6,-4
1563815730967791,4,4,-1,0,7,5,15,11
1563815730967791,-1,0,2,-6,-11,-5,-24,-8
1563815730968758,0,-3,-3,-1,1,3,12,3
1563815730968758,0,-1,3,3,4,-4,3,-2
1563815730990747,-1,-2,-2,-9,-6,-6,-12,-3
1563815730990747,-1,0,-1,2,3,3,7,-6
1563815730990747,0,-3,-3,-2,-1,-10,-3,4
1563815730990747,4,3,3,1,0,15,-1,2
1563815731004739,0,-2,-3,2,3,-2,2,4
1563815731004739,0,2,2,2,1,8,-2,3
1563815731012736,-2,-2,-3,-6,-7,-3,-5,-7
1563815731012736,-1,-3,-5,5,2,-12,-3,-6
1563815731027725,-1,0,-1,-4,-3,3,2,-2
1563815731027725,2,2,4,2,-2,-6,-15,-2
1563815731028725,1,2,2,0,4,4,9,2
1563815731028725,-2,-5,-2,-4,-7,0,-2,-2
1563815731050713,0,-1,-1,-1,-1,-5,-1,-4
1563815731050713,-4,-6,-2,-4,1,-3,0,-6
1563815731051713,0,0,0,2,0,4,5,-1
1563815731051713,-4,-1,-5,-14,-9,-5,-16,7
1563815731073706,1,3,5,8,4,7,2,1
1563815731073706,-1,-4,-6,-5,-2,-6,6,0
1563815731074699,1,-2,0,2,2,3,10,1
1563815731074699,-4,-1,-7,-7,-5,-10,-2,-2
1563815731088690,-1,0,0,1,-2,0,-11,3
1563815731088690,2,2,5,7,6,4,5,0
1563815731095685,-2,-3,3,-3,-3,-3,-13,-5
1563815731095685,-2,-2,1,4,3,-3,9,-4
1563815731110682,2,0,-2,-3,3,8,7,0
1563815731110682,2,2,2,1,-2,-6,-1,6
1563815731111677,-4,1,0,0,0,2,-7,-3
1563815731111677,1,2,0,0,0,-1,0,1
1563815731125670,-2,-3,0,2,6,3,26,14
1563815731125670,-2,0,-1,-5,-9,-5,-27,-21
1563815731125670,-3,-4,-5,-3,-2,-1,3,0
1563815731125670,0,-4,-1,-4,-3,-2,0,-1
1563815731147695,1,1,3,-1,-3,1,-3,1
1563815731147695,-2,-1,-1,-3,-1,1,25,6
1563815731148656,2,0,-2,1,1,-7,-19,-4
1563815731148656,1,0,1,2,6,7,1,3
1563815731170644,0,3,4,-3,-3,-4,0,-7
1563815731170644,-2,-3,-6,1,2,-4,-11,4
1563815731171646,-4,-2,-3,-3,-3,0,-1,-4
1563815731171646,0,-3,-5,-3,-5,-2,11,3
1563815731185642,-4,-3,0,0,-2,-5,-10,-9
1563815731185642,-1,0,-3,-1,1,4,6,1
1563815731185642,0,2,3,2,2,-6,8,0
1563815731185642,0,0,0,3,1,0,-5,-1
1563815731207642,-2,-3,-3,-9,-12,-16,-32,-7
1563815731207642,-3,-3,-2,-2,0,5,7,-1
1563815731208621,-1,-3,0,1,-1,-3,6,4
1563815731208621,-2,0,1,-1,1,1,5,-5
1563815731238663,-2,-1,0,0,-2,2,2,-1
1563815731238663,2,0,-1,1,2,-9,-1,0
1563815731239604,-9,-2,1,1,-1,8,3,-5
1563815731239604,11,2,2,1,-4,-8,-6,-3
1563815731244601,-5,-4,-4,-1,0,-4,-2,0
1563815731244601,0,0,1,-2,-3,1,-1,3
1563815731252636,0,1,-3,-5,-2,-7,-1,-2
1563815731252636,-5,1,1,2,-6,-8,-8,-5
1563815731267587,0,1,0,-4,-5,3,4,-1
1563815731267587,-2,-1,-4,0,2,4,-1,-2
1563815731268588,2,1,0,2,4,10,-4,-5
1563815731268588,-6,-1,1,3,11,2,-6,-5
1563815731290574,3,4,5,7,-1,7,8,2
1563815731290574,19,-1,-3,-7,-16,-20,-11,8
1563815731291574,-19,-7,-6,-11,-16,-17,-6,-2
1563815731291574,-6,-4,-6,-4,-7,-4,-3,-6
1563815731304567,3,1,-1,1,5,1,1,-6
1563815731304567,-13,-3,2,3,-5,4,6,0
1563815731312566,9,2,2,5,-3,-5,0,4
1563815731312566,1,4,4,4,22,17,6,0
1563815731327555,-4,1,0,5,28,13,6,1
1563815731327555,4,0,1,-2,-8,-14,-10,3
1563815731328551,-7,-6,-10,-19,-47,-26,-4,13
1563815731328551,-3,-3,-6,-7,-13,-5,-3,-19
1563815731350543,-28,-5,3,4,4,0,-2,-24
1563815731350543,-1,-1,-2,6,34,33,12,3
1563815731351543,5,0,1,3,-9,-9,-3,2
1563815731351543,-1,-5,-3,-7,-15,-25,-14,2
1563815731364535,3,-4,-6,-8,-14,-11,-1,4
1563815731364535,-8,0,4,2,3,4,-3,-5
1563815731372525,0,-1,2,11,34,33,7,-6
1563815731372525,2,1,1,2,1,7,6,7
1563815731387555,8,0,2,7,7,-2,-1,5
1563815731387555,-11,-4,0,-10,-37,-36,-9,-8
1563815731388522,5,-3,-4,4,22,13,4,1
1563815731388522,-1,-1,-5,-3,-3,-3,1,1
1563815731410512,3,0,2,-9,-9,5,5,8
1563815731410512,5,4,0,-2,0,5,-1,1
1563815731411512,1,1,3,5,0,5,1,-3
1563815731411512,-3,-4,0,6,11,-6,-6,0
1563815731424556,3,3,-2,10,3,-1,3,1
1563815731424556,-1,-1,-2,-2,5,4,22,3
1563815731432530,3,1,4,0,-2,-7,-15,-3
1563815731432530,-8,-4,-5,-6,-5,-9,-16,-11
1563815731447484,-1,-2,-5,0,-10,-4,9,4
1563815731447484,-1,1,-1,-15,-12,-6,-14,-2
1563815731448484,-3,-6,-12,-3,5,12,23,5
1563815731448484,1,1,-4,-12,-18,-4,0,1
1563815731470478,-1,0,5,6,1,-13,-26,-10
1563815731470478,-3,-2,1,13,15,0,3,-2
1563815731471472,2,2,2,4,15,14,11,3
1563815731471472,6,0,-3,-1,-5,3,24,25
1563815731484469,-6,0,-4,-13,-12,-7,-16,-24
1563815731484469,-3,-2,-2,1,4,0,-12,-1
1563815731492463,2,3,5,4,-5,-8,-14,-7
1563815731492463,1,-1,-5,-3,3,1,0,-1
1563815731507482,2,-2,2,6,3,3,23,15
1563815731507482,0,-1,1,0,2,7,-7,-8
1563815731508456,0,1,-4,3,0,-13,-17,-9
1563815731508456,-4,0,2,-5,0,11,10,2
1563815731530435,0,-3,-4,-11,-11,0,11,0
1563815731530435,-3,-6,-5,-3,-8,-8,-21,-3
1563815731531435,-2,-3,0,-6,3,-1,3,-6
1563815731531435,-1,0,0,6,1,0,-13,-7
1563815731544428,1,-4,-4,-10,-8,-5,-8,5
1563815731544428,0,2,1,4,11,13,19,7
1563815731552464,2,2,2,-2,-2,-2,-4,6
1563815731552464,-1,2,3,2,-5,0,1,-5
1563815731568476,3,-1,1,1,2,-2,5,4
1563815731568476,2,0,0,6,7,6,7,-1
1563815731569415,-2,-2,-3,-8,-2,1,-24,-4
1563815731569415,-1,0,4,-1,-8,-7,2,2
1563815731591404,-3,-3,-6,0,2,-12,6,-7
1563815731591404,1,1,-3,-3,-5,-1,4,10
1563815731591404,-7,0,3,0,1,2,-1,-16
1563815731591404,5,-2,-3,-1,2,5,3,5
1563815731613429,2,0,-2,-2,-3,-12,0,0
1563815731613429,0,1,2,2,2,0,6,6
1563815731614387,1,-1,0,-2,-4,0,20,1
1563815731614387,-6,-6,-3,-1,-5,-14,-27,-5
1563815731627422,3,1,-1,0,4,9,16,15
1563815731627422,1,-2,1,0,-3,-3,-3,-4
1563815731628381,-2,-1,0,1,-1,3,14,-1
1563815731628381,-4,-2,1,-1,0,-2,-2,1
1563815731651366,-1,1,-1,-1,-1,-1,-12,0
1563815731651366,0,-2,-5,-7,-7,0,-10,-2
1563815731651366,3,1,0,4,-5,-5,4,5
1563815731651366,1,2,2,4,10,18,11,4
1563815731681351,-1,-1,-1,-2,-3,1,-18,-5
1563815731681351,-2,-1,-3,-4,-5,-3,7,-7
1563815731681351,0,0,-2,-1,-2,-4,-7,1
1563815731681351,2,2,1,4,4,9,5,-3
1563815731687346,-2,-1,0,1,-4,14,-11,0
1563815731687346,-1,0,2,4,4,-6,-21,-7
1563815731688346,0,-2,-1,-6,-7,-6,0,1
1563815731688346,-1,-3,0,1,2,-3,-8,-1
1563815731711337,-2,0,0,1,5,4,3,-5
1563815731711337,-1,-2,-4,-2,-4,-10,11,0
1563815731711337,-3,0,0,-3,-1,11,-3,4
1563815731711337,-6,-6,-3,2,-2,-13,-7,-13
1563815731733384,-1,1,1,0,-1,-3,0,1
1563815731733384,-3,-1,-3,-3,-5,-2,4,-2
1563815731734348,0,0,0,-1,-1,-4,-1,4
1563815731734348,0,0,0,1,1,-4,3,3
1563815731747316,3,-1,0,2,2,13,9,6
1563815731747316,-3,-3,-4,-4,-5,-5,-13,-9
1563815731748314,-3,-3,-6,1,2,-2,0,-1
1563815731748314,0,3,2,-3,0,1,-5,-1
1563815731771298,2,2,-2,-2,0,18,-31,4
1563815731771298,-2,-1,0,3,0,0,4,-8
1563815731771298,-3,-3,-3,-4,-2,-4,-21,-6
1563815731771298,0,1,0,2,-2,-7,0,0
1563815731793318,-1,-2,0,-1,0,-9,7,-2
1563815731793318,1,-1,1,-2,-2,0,6,5
1563815731794286,-1,-1,2,5,1,4,-1,0
1563815731794286,-3,0,-1,0,-2,-5,4,-4
1563815731807310,6,0,-1,-2,-2,-4,14,10
1563815731807310,-2,-1,-2,0,-1,4,-2,-2
1563815731808277,0,-2,-1,0,-1,-9,4,-1
1563815731808277,-4,1,-2,-3,-1,3,2,0
1563815731831325,-5,0,-1,1,-3,-8,-4,-8
1563815731831325,-1,1,-2,0,1,-1,0,0
1563815731831325,-2,-1,1,-3,-3,-2,-3,0
1563815731831325,1,-3,-2,-3,0,5,4,-4
1563815731853253,-2,-2,-2,0,1,-8,0,-4
1563815731853253,1,2,2,0,1,1,-7,2
1563815731854253,-2,0,-2,-4,-2,-10,18,1
1563815731854253,0,-1,-1,-1,-2,-1,9,0
1563815731868244,-1,-2,0,1,-6,-12,13,-2
1563815731868244,-1,-1,-2,-5,-1,5,-4,5
1563815731868244,-1,-3,0,1,-3,1,10,-4
1563815731868244,2,1,-1,0,-1,-5,-17,-2
1563815731891250,-4,-1,-2,-1,3,12,-36,-6
1563815731891250,0,-1,-2,-2,-6,-9,11,5
1563815731891250,1,0,1,2,0,6,-5,1
1563815731891250,-1,-2,-4,-6,-3,4,24,6
1563815731913221,0,-1,1,0,0,4,8,0
1563815731913221,-1,2,-1,2,2,-5,-17,-5
1563815731914215,2,2,1,1,1,3,-7,-3
1563815731914215,0,-2,1,0,0,3,-8,-3
1563815731927208,-5,-2,1,1,0,-15,10,-4
1563815731927208,0,-3,-2,-3,-2,8,-19,-8
1563815731928207,1,2,1,1,6,18,-18,2
1563815731928207,1,2,0,1,0,8,-19,0
1563815731950217,-1,0,0,-1,-6,-2,0,4
1563815731950217,-2,-4,-3,-1,2,0,7,-9
1563815731951193,-1,-2,-1,-1,-3,-1,-10,-4
1563815731951193,2,-1,-2,-1,-1,-13,-6,1
1563815731973182,1,-1,-3,-4,-2,4,-3,-2
1563815731973182,0,0,0,2,2,7,7,4
1563815731974214,0,1,0,-4,2,4,-32,-6
1563815731974214,-2,-2,0,1,-1,1,5,2
1563815731988180,-2,-2,1,3,0,-8,9,-6
1563815731988180,-4,0,1,1,4,-1,1,2
1563815731988180,-2,-1,-4,-7,-11,-13,2,2
1563815731988180,1,1,0,1,0,12,-6,2
1563815732011181,0,-3,-3,-3,-5,-11,14,1
1563815732011181,0,-2,1,1,-1,2,-4,-1
1563815732012160,1,-1,1,-1,0,0,15,3
1563815732012160,-1,1,0,-1,1,9,-28,-8
1563815732033169,-2,-2,-2,-2,0,-4,8,2
1563815732033169,-9,-2,1,1,1,0,-1,-8
1563815732035168,12,1,-3,-2,-3,-12,17,15
1563815732035168,-2,-2,1,-4,-3,-12,21,0
1563815732047161,3,1,-1,1,2,12,-23,-4
1563815732047161,-6,-2,-2,-2,-5,-4,3,-3
1563815732056137,-3,-3,-2,-2,-3,-5,7,4
1563815732056137,-1,1,1,5,7,-7,1,-10
1563815732071128,-2,-3,-1,-3,-6,-2,-12,-1
1563815732071128,5,-1,-4,-5,-9,-10,9,4
1563815732072125,-4,-1,1,3,6,24,-54,-6
1563815732072125,2,-1,-2,1,4,3,28,11
1563815732093113,-4,-1,0,-2,-1,-2,-6,-5
1563815732093113,0,1,1,1,-8,-11,-7,-1
1563815732095112,1,-2,-2,-3,-4,-2,19,1
1563815732095112,-2,0,-1,1,0,-4,-7,-3
1563815732107105,0,0,-1,-1,5,7,-9,-3
1563815732107105,1,-2,0,-3,-2,3,13,4
1563815732123095,-3,-2,-3,-5,-5,-7,10,-3
1563815732123095,-1,-2,0,4,1,0,0,0
1563815732138109,-1,-3,-3,-1,-3,-11,16,3
1563815732138109,1,-1,-2,-1,0,2,-15,-4
1563815732140085,-19,-2,-1,0,-2,-5,-2,-14
1563815732140085,18,1,-1,0,-1,4,8,12
1563815732153101,2,3,1,1,-1,0,-4,13
1563815732153101,-6,-4,-1,-1,-1,-5,20,-7
1563815732155084,-1,-1,-1,0,2,0,-15,-7
1563815732155084,-7,-4,-3,-4,-1,-2,-7,-4
1563815732167092,-1,0,-4,-3,-2,-14,18,1
1563815732167092,4,0,2,3,2,1,-8,6
1563815732184070,-1,-2,0,0,-10,-28,32,3
1563815732184070,-3,0,-1,-2,1,19,12,2
1563815732191061,1,0,0,2,8,-8,-13,-7
1563815732191061,1,-1,-1,-2,-11,-5,-8,1
1563815732192062,0,-4,-4,-3,11,20,11,0
1563815732192062,-3,1,0,-2,-4,-19,-15,-5
1563815732213066,-3,0,0,-1,-2,8,-3,1
1563815732213066,-1,0,-3,-2,0,-10,4,-1
1563815732215045,3,-1,0,1,-6,-5,0,3
1563815732215045,-2,-1,-1,-3,-4,9,-20,-5
1563815732236030,-1,-2,-2,0,0,2,11,0
1563815732236030,0,0,-3,-1,-2,-5,1,2
1563815732252043,2,-1,0,2,0,1,13,6
1563815732252043,-3,0,-2,-3,-4,4,-13,-10
1563815732253021,-7,-1,1,1,1,6,-14,-8
1563815732253021,4,-1,1,-1,4,9,-8,0
1563815732255022,3,1,1,0,-4,-5,0,-4
1563815732255022,-3,-3,-4,-4,-6,-9,-5,3
1563815732273009,4,-1,-2,-3,-4,-7,7,0
1563815732273009,-6,-1,-2,-2,7,7,0,0
1563815732275017,0,-1,2,3,5,0,-2,-1
1563815732275017,-4,-4,-2,-2,-9,-9,7,-5
1563815732287024,-9,-2,0,1,-2,-1,1,-7
1563815732287024,-1,1,0,0,5,8,-9,-8
1563815732296000,7,-2,-5,-3,-8,-12,-7,9
1563815732296000,0,1,0,-1,-4,8,5,1
1563815732310010,-1,-2,-2,-2,-4,-5,4,2
1563815732310010,-2,-2,-2,-1,-1,-13,24,6
1563815732316985,-11,-2,2,1,5,16,-2,-11
1563815732316985,7,1,1,1,3,-8,-8,4
1563815732332978,0,-1,-2,0,0,4,0,0
1563815732332978,1,-1,0,1,2,16,-24,-4
1563815732334976,-3,-1,-1,-1,-3,4,10,0
1563815732334976,-4,-1,-2,2,2,-10,11,-1
1563815732346967,3,2,1,3,1,19,-18,1
1563815732346967,0,1,-1,-4,-2,12,-19,-1
1563815732355961,0,0,-2,-2,2,10,-21,-5
1563815732355961,-1,-1,1,1,6,11,-4,-2
1563815732370953,3,-1,0,0,-6,-1,3,1
1563815732370953,1,-1,-3,0,5,-4,-2,-6
1563815732372952,-7,-4,-3,-3,-14,-14,-3,-3
1563815732372952,-14,0,-2,-1,0,-2,12,-10
1563815732400956,21,0,-2,0,4,8,-5,19
1563815732400956,-2,-1,1,0,-3,-13,14,-1
1563815732402935,-7,-1,0,-1,3,-6,-5,-12
1563815732402935,4,-1,-3,-4,-11,-13,1,4
1563815732415928,-7,-1,-2,-1,-1,-14,21,-4
1563815732415928,0,0,0,0,3,10,1,2
1563815732417927,6,1,0,2,-1,-8,-1,3
1563815732417927,-6,-2,-1,3,1,6,-37,-11
1563815732429938,-4,1,0,-1,2,7,-30,-14
1563815732429938,3,-1,-1,-2,-3,-4,6,8
1563815732436919,-4,0,-3,0,2,7,8,1
1563815732436919,4,-2,-1,2,2,-8,23,10
1563815732460910,-1,0,-1,-3,-4,-2,-3,-4
1563815732460910,-4,-2,-3,-1,-4,-14,5,-4
1563815732462920,-1,-1,-2,-4,3,-3,-14,-2
1563815732462920,1,-1,2,2,-2,7,4,4
1563815732466902,-3,-1,-2,-4,-3,0,8,-2
1563815732466902,-3,1,4,2,3,22,-26,-8
1563815732475902,4,1,1,2,-5,-22,2,0
1563815732475902,2,-1,-5,-6,-4,-5,1,2
1563815732489915,-6,0,0,0,-1,-2,-1,-4
1563815732489915,0,-1,-2,-3,2,11,7,5
1563815732496911,1,0,4,3,1,-6,-6,1
1563815732496911,-1,-2,2,-1,-4,-33,37,4
1563815732512890,3,-1,-1,0,1,19,1,8
1563815732512890,-4,-2,-2,0,-3,-22,7,-6
1563815732514871,-2,-3,-4,-3,4,9,-10,-8
1563815732514871,-1,-1,-3,-2,-1,-1,6,0
1563815732535861,-15,-2,0,-3,-9,-12,0,-9
1563815732535861,23,2,-1,0,-3,-1,9,17
1563815732537864,-1,-1,-1,-4,-2,-1,11,1
1563815732537864,1,0,-1,-3,2,19,-22,-5
1563815732549881,-2,0,0,3,6,-3,4,4
1563815732549881,-3,-1,1,4,4,19,-36,-13
1563815732556866,-2,2,-1,-1,-5,5,-2,2
1563815732556866,-1,-2,-1,-1,1,-7,-16,-2
1563815732573837,0,-1,-2,-1,2,16,-12,-5
1563815732573837,-3,-2,-2,-3,-5,-1,25,2
1563815732574839,9,0,-2,0,-8,-3,8,13
1563815732574839,-3,2,2,0,2,9,-15,-3
1563815732596854,-5,0,-1,-3,-12,-12,6,-10
1563815732596854,-3,-3,-5,-4,-1,-6,-4,3
1563815732598822,1,-1,0,0,8,7,8,3
1563815732598822,0,1,2,3,6,1,5,0
1563815732609835,-11,-3,0,-3,-4,3,-8,-7
1563815732609835,18,0,-1,-1,-1,2,8,21
1563815732616813,-11,-4,0,-1,-2,-12,-15,-16
1563815732616813,-8,-2,-1,-1,1,12,-4,-13
1563815732633802,6,-3,-1,-1,-3,-15,-7,4
1563815732633802,-9,-2,-3,-4,-5,-8,8,-4
1563815732634805,3,2,-1,1,2,9,-15,1
1563815732634805,1,0,0,-1,-2,-2,6,0
1563815732655789,0,0,-1,-1,-2,-10,18,4
1563815732655789,-4,-2,-2,0,2,-5,1,-1
1563815732657788,3,1,-1,-3,-8,-8,7,5
1563815732657788,-2,0,1,-1,3,14,-2,-4
1563815732678790,4,0,0,3,5,1,-7,2
1563815732678790,-3,0,2,0,-2,7,-31,-8
1563815732679788,-3,0,-1,1,3,-11,25,0
1563815732679788,0,-1,-2,0,-7,-5,0,2
1563815732700783,3,0,-2,-6,0,6,-6,1
1563815732700783,-4,-1,0,0,2,-6,9,0
1563815732702763,-3,-3,-3,4,0,-10,2,-3
1563815732702763,3,1,2,3,-2,-9,-7,-4
1563815732715785,2,-1,2,4,1,-3,4,1
1563815732715785,-6,-1,-2,-6,-5,-4,4,-8
1563815732717756,0,-2,-4,-14,-8,11,-22,-3
1563815732717756,1,-1,-2,5,4,4,10,4
1563815732729752,-1,1,0,-1,-4,-9,-19,-1
1563815732729752,-3,-3,-1,6,2,-11,-12,-3
1563815732737748,0,-1,-1,-3,1,12,3,0
1563815732737748,-2,-1,-1,2,3,6,-37,-6
1563815732753734,0,0,0,-3,-4,0,4,-1
1563815732753734,-3,0,0,-1,-3,-5,5,-5
1563815732754739,1,-1,-2,0,1,-4,4,-1
1563815732754739,0,-3,-3,-7,-5,-10,9,0
1563815732775721,0,1,0,4,7,3,2,2
1563815732775721,-1,-1,-1,-3,0,11,-7,-3
1563815732777720,2,0,3,0,0,1,3,2
1563815732777720,1,-2,-6,-6,-4,-7,25,5
1563815732789717,0,-3,-2,0,-7,-7,1,3
1563815732789717,-3,-1,-1,-4,-5,5,-16,-8
1563815732798708,-1,1,4,4,1,-2,-10,-2
1563815732798708,1,0,-2,-3,-6,-2,11,3
1563815732813729,-1,-2,-3,-1,1,-9,14,2
1563815732813729,-2,-1,-4,4,3,-6,13,0
1563815732814703,-1,-1,-1,-4,-1,9,0,0
1563815732814703,0,0,2,-3,-3,5,-25,-6
1563815732843702,-1,-1,0,2,1,3,-6,-2
1563815732843702,0,0,0,0,-2,-15,12,3
1563815732845680,-2,0,-1,2,2,1,-9,-3
1563815732845680,-4,-1,-1,-3,-3,4,14,-1
1563815732849708,4,-4,-4,-6,-6,-22,27,8
1563815732849708,0,1,2,0,-2,-1,1,1
1563815732882660,0,-1,-2,-3,-6,-19,10,1
1563815732882660,0,-2,-3,0,-1,8,-8,0
1563815732882660,-4,1,-2,-1,0,16,-38,-9
1563815732882660,0,-2,0,0,3,-5,-4,0
1563815732887662,3,1,1,-1,-4,7,-8,-2
1563815732887662,-3,-3,-2,0,0,-11,7,1
1563815732895682,-1,0,-3,-1,-1,-2,-4,-3
1563815732895682,-2,0,-1,0,-3,3,15,5
1563815732897669,-3,-3,-2,0,-3,7,-6,-3
1563815732897669,2,0,1,0,-1,-6,-1,0
1563815732909673,2,-2,-2,-3,0,-5,15,0
1563815732909673,1,0,-1,-2,-3,-4,-2,-3
1563815732918638,-2,-2,-2,0,0,-9,20,3
1563815732918638,1,-1,-1,0,1,9,-10,-3
1563815732933630,-2,-1,0,-2,2,1,8,0
1563815732933630,-2,-2,-3,-2,-1,2,4,2
1563815732935632,-1,0,-1,1,2,9,-6,-2
1563815732935632,1,1,0,-1,0,-1,-7,0
1563815732956617,-3,-2,-2,1,1,-9,15,4
1563815732956617,-2,-1,1,1,1,-3,-4,-1
1563815732957624,0,-2,-1,-3,1,9,-13,-3
1563815732957624,-10,-2,0,1,-1,-6,3,-8
1563815732969610,11,2,-1,-1,1,4,-2,7
1563815732969610,3,1,0,1,-1,-4,-9,1
1563815732978623,2,-1,0,0,-2,-12,13,4
1563815732978623,-2,-5,-3,-3,0,-5,14,-1
1563815732993597,-9,0,-1,-2,-1,9,-19,-13
1563815732993597,1,2,2,-2,-2,7,1,-1
1563815732995596,3,-2,-4,1,-3,-26,-1,4
1563815732995596,-10,-2,-2,-1,-3,14,-6,-7
1563815733016584,-1,-1,-1,-2,1,19,-7,-3
1563815733016584,1,0,-1,-3,-3,-10,-36,-2
1563815733022587,-4,-2,-1,-1,1,1,4,-5
1563815733022587,6,-1,-3,-2,0,-9,2,5
1563815733029577,-7,-1,-2,-1,-1,-7,5,-5
1563815733029577,-1,-3,-4,-2,-4,-18,40,6
1563815733038571,0,1,2,-3,-3,22,-35,0
1563815733038571,3,0,-2,-2,-3,-18,-6,0
1563815733053563,0,0,1,1,-2,4,-4,-1
1563815733053563,-5,-2,-1,-3,-4,-25,28,-5
1563815733054563,-2,-2,-4,-1,-2,-17,7,-1
1563815733054563,-1,0,-2,-1,-2,1,10,1
1563815733075584,-12,-3,0,2,0,-13,2,-14
1563815733075584,4,0,1,-1,-1,4,-1,7
1563815733077549,-2,0,-1,-1,1,2,-5,-3
1563815733077549,-2,-4,-2,-3,-7,-49,35,8
1563815733098567,5,-1,-2,-3,1,6,5,1
1563815733098567,-11,-4,0,2,2,13,-7,-5
1563815733100537,-1,-1,0,0,1,14,-4,-14
1563815733100537,6,2,1,-4,-4,-14,-11,-1
1563815733120526,-2,0,0,0,1,6,-22,-7
1563815733120526,-5,-1,0,0,1,8,-14,-8
1563815733122524,2,-1,-2,-2,-1,-11,14,8
1563815733122524,16,3,1,-2,0,26,-11,16
1563815733135517,-2,1,3,0,0,-2,-9,-1
1563815733135517,7,0,-2,-1,1,18,-12,11
1563815733137515,-9,0,0,-1,-3,-2,0,-4
1563815733137515,-2,2,0,1,3,9,3,-2
1563815733149511,-4,-2,-2,-3,-2,6,-6,-3
1563815733149511,-4,-1,1,0,-1,-4,-6,-11
1563815733158502,3,-3,-3,-1,-2,-2,-4,0
1563815733158502,2,-2,-4,0,1,-2,18,7
1563815733179491,0,1,0,0,0,13,-2,-1
1563815733179491,0,-3,-4,-1,-1,-6,2,0
1563815733188488,0,0,-1,1,3,-4,4,-9
1563815733188488,2,2,5,7,16,48,-31,-3
1563815733195480,10,0,0,-1,-8,-20,10,15
1563815733195480,-1,1,0,-2,-9,-13,8,-7
1563815733197484,10,5,3,0,2,41,-7,10
1563815733197484,-7,-4,-4,-2,7,17,1,-3
1563815733209473,-4,-4,-4,0,-4,-17,-5,-5
1563815733209473,-4,-5,-5,-10,-13,26,-31,-12
1563815733218486,-18,2,2,5,-6,-7,2,-22
1563815733218486,8,1,2,1,15,-3,0,4
1563815733233481,19,6,-2,-1,-1,13,3,16
1563815733233481,-1,1,0,-4,-17,-8,-9,3
1563815733235457,-18,-5,-5,-3,15,4,-1,-15
1563815733235457,-6,-6,-4,-3,-20,-23,-14,-8
1563815733255468,-7,-8,0,3,3,-7,4,-2
1563815733255468,-7,2,-2,2,8,-6,3,-7
1563815733257449,11,-3,5,10,36,17,23,24
1563815733257449,-6,-2,0,2,-10,13,-27,-22
1563815733269438,7,0,-7,-18,-48,-23,2,16
1563815733269438,-5,3,2,0,-8,-9,5,-21
1563815733278433,12,-1,-2,3,-3,-3,-1,43
1563815733278433,-12,-1,1,2,40,10,17,-25
1563815733293446,0,-3,1,6,15,4,-5,4
1563815733293446,-4,7,2,0,-16,-10,-18,4
1563815733295423,19,1,2,-5,11,4,8,24
1563815733295423,-20,-10,-11,-11,-66,-57,-15,1
1563815733316415,-17,-6,-1,-1,-12,6,-3,-35
1563815733316415,11,5,4,4,15,6,15,13
1563815733317410,-10,3,-7,-5,-18,-9,-7,-6
1563815733317410,5,-5,-4,-1,10,-9,21,22
1563815733329404,-4,-6,-3,-2,21,0,3,-9
1563815733329404,2,-12,-3,0,-4,9,8,17
1563815733338406,-10,3,6,-4,-23,-37,-14,-22
1563815733338406,-10,1,-2,-5,-1,0,-9,-30
1563815733353392,2,6,1,3,0,-10,1,-3
1563815733353392,8,1,5,8,21,35,-6,-13
1563815733355389,12,-2,-4,-5,-18,-19,0,25
1563815733355389,-11,4,0,-8,-38,-11,-32,-31
1563815733376376,28,5,3,-1,10,14,9,44
1563815733376376,-22,-4,-2,-1,-11,-40,3,-4
1563815733377376,2,-6,-7,-7,-3,-8,-14,-6
1563815733377376,9,0,2,8,29,11,15,11
1563815733389372,-21,-1,0,0,4,-9,-8,-38
1563815733389372,8,-2,-3,0,21,18,3,15
1563815733398364,-7,-2,0,2,1,-14,5,-11
1563815733398364,10,2,6,2,-12,16,4,-1
1563815733412355,-18,-2,-3,-3,0,4,-6,-15
1563815733412355,19,3,-1,-2,4,10,14,28
1563815733419374,2,-1,-4,-3,15,12,-4,6
1563815733419374,0,-2,-3,-3,-11,-11,0,10
1563815733436343,-9,2,2,3,1,5,18,-18
1563815733436343,-5,-8,-8,-9,-5,-32,6,0
1563815733437354,15,1,2,2,1,5,-23,-3
1563815733437354,-5,2,1,-1,11,5,6,-5
1563815733449356,14,-1,-3,-4,-27,-11,2,23
1563815733449356,-8,-1,2,9,28,-3,11,-12
1563815733458329,-4,-1,-1,-5,-20,-1,-14,-11
1563815733458329,9,-3,-2,0,6,-6,3,15
1563815733473325,1,-3,0,2,24,-1,6,26
1563815733473325,-3,-4,-5,-7,-5,-8,6,-6
1563815733488319,-11,0,1,3,5,7,1,-20
1563815733488319,15,4,3,5,13,13,7,17
1563815733496311,-30,-5,-3,-9,-34,-15,-1,-13
1563815733496311,26,0,-1,2,3,4,6,26
1563815733497306,-4,-2,-4,-5,-8,-8,0,7
1563815733497306,-7,0,0,1,4,-15,-13,-18
1563815733518317,0,-2,-4,0,4,-18,23,6
1563815733518317,-13,-1,0,-1,-11,22,-8,-18
1563815733520299,4,0,-1,-1,-3,-8,13,9
1563815733520299,3,1,-1,-1,5,22,8,4
1563815733532319,4,3,3,2,-2,5,-31,-8
1563815733532319,-10,1,4,4,1,1,-3,-15
1563815733539284,-5,1,-1,0,8,16,23,23
1563815733539284,19,-4,-5,-3,6,-13,-2,4
1563815733563272,11,-3,-5,-1,13,16,36,31
1563815733563272,-31,-3,-2,-7,-9,-16,-45,-48
1563815733565270,2,-1,0,-1,-11,22,0,-7
1563815733565270,-7,1,1,-3,-20,-18,-2,6
1563815733578262,8,0,2,2,3,7,-9,-1
1563815733578262,10,1,0,3,12,7,12,8
1563815733580261,-18,-3,-4,-6,-16,-11,-17,-35
1563815733580261,1,-2,-1,1,9,8,3,29
1563815733592254,4,3,-1,-4,-8,-10,-15,-22
1563815733592254,1,-3,-4,-5,-7,1,24,13
1563815733599249,-17,0,3,4,8,6,-10,-30
1563815733599249,15,0,-1,-4,-6,-4,-3,18
1563815733623257,1,-1,1,7,21,17,-4,12
1563815733623257,6,0,0,-2,-11,-3,-4,9
1563815733625233,3,-1,-1,0,7,-6,8,-2
1563815733625233,-15,0,1,-2,-11,4,-32,-38
1563815733638244,-2,1,0,2,11,12,-2,-7
1563815733638244,9,1,-2,-2,-16,-9,-8,-4
1563815733640225,4,-1,3,2,6,9,0,8
1563815733640225,-3,-1,-2,3,13,19,16,8
1563815733653218,-12,1,-3,-9,-2,-10,-30,-37
1563815733653218,3,-4,-5,-4,-19,-17,-10,26
1563815733659216,3,-1,-3,0,7,-2,12,0
1563815733659216,-16,-4,-4,-6,-13,-5,1,-6
1563815733677227,-1,-1,0,1,1,-1,4,3
1563815733677227,-6,1,3,0,1,12,-24,-18
1563815733678205,2,-2,-1,1,-5,-2,0,8
1563815733678205,12,2,-3,-3,3,-5,7,15
1563815733698192,-17,-3,1,4,-9,-13,1,-20
1563815733698192,8,-5,-4,-2,5,1,12,14
1563815733700195,-2,-5,-2,-3,-12,-8,0,1
1563815733700195,-1,0,1,-1,2,2,-2,-1
1563815733713184,5,-1,-1,-2,-5,-6,6,8
1563815733713184,2,2,2,2,8,4,4,0
1563815733719204,-4,0,-2,-2,-1,-5,-1,-4
1563815733719204,-6,-3,-1,-1,-5,-5,6,-5
1563815733736170,6,1,0,1,5,5,4,8
1563815733736170,-3,-3,-2,-4,-16,-5,-7,-6
1563815733742168,-2,-2,-2,-4,0,10,-1,-7
1563815733742168,-3,-4,0,1,0,-25,-1,-6
1563815733766153,12,3,1,2,0,17,-12,20
1563815733766153,0,1,0,0,2,-4,-7,4
1563815733767155,-5,-1,-1,-1,9,-1,9,-3
1563815733767155,-2,0,-3,-3,-11,-10,-6,-7
1563815733772152,0,-2,-3,-2,0,-9,-8,-2
1563815733772152,-6,2,1,-1,-2,16,-10,-2
1563815733788197,0,-3,-5,-4,0,-9,-12,-13
1563815733788197,7,-1,-1,-3,4,17,14,10
1563815733803136,-2,1,2,1,-2,14,-26,1
1563815733803136,-3,-1,0,2,12,10,2,-4
1563815733805131,1,-1,-2,-2,-10,-12,0,5
1563815733805131,1,2,1,1,5,23,-8,-9
1563815733818123,3,-4,-1,-5,-6,-8,4,14
1563815733818123,5,-1,1,3,8,4,9,0
1563815733820123,-2,2,2,1,1,1,5,3
1563815733820123,-8,-3,-3,-2,-6,-11,11,-9
1563815733842112,5,-3,-3,0,-4,-20,28,19
1563815733842112,-4,-1,-2,-3,2,-2,1,-8
1563815733843109,3,1,1,1,-5,-4,-3,-8
1563815733843109,-3,-2,1,0,-3,-8,-8,16
1563815733857142,-5,0,-2,0,1,-3,9,-11
1563815733857142,-1,-1,0,0,2,-3,5,-1
1563815733859099,2,-2,-1,-1,-5,-12,20,7
1563815733859099,-3,-1,-3,-1,7,13,4,-7
1563815733878149,-3,0,-2,-1,-5,-6,-8,-8
1563815733878149,1,-1,-2,0,-13,-4,6,6
1563815733880090,-2,0,0,1,2,-24,3,0
1563815733880090,-9,-1,-2,0,12,13,-13,-17
1563815733902077,8,-2,-2,-3,-8,-5,6,17
1563815733902077,-3,2,1,-1,0,-4,3,-7
1563815733903077,1,0,2,1,-4,-3,4,2
1563815733903077,-3,-1,-2,-1,5,-1,-3,0
1563815733916080,-5,-3,-3,-2,3,12,-4,-9
1563815733916080,1,-3,-4,-3,-3,-4,1,0
1563815733917067,-1,3,8,9,-2,12,-11,-5
1563815733917067,0,0,3,1,0,-8,-1,0
1563815733938094,-4,0,-1,0,2,10,7,-11
1563815733938094,-1,-4,-5,-6,-4,-5,-6,2
1563815733940056,-1,-2,-3,-1,3,9,-10,4
1563815733940056,0,0,2,4,-4,-11,9,1
1563815733952055,-1,1,3,2,0,1,6,-1
1563815733952055,-1,-2,0,-12,-6,15,-21,-6
1563815733961050,3,0,-9,-4,7,0,-7,1
1563815733961050,1,-2,-3,-2,-17,-7,6,4
1563815733983037,-6,-2,-4,0,-1,-5,5,-6
1563815733983037,0,2,3,8,4,-8,-1,4
1563815733985031,-2,-2,-5,-6,2,5,-7,-3
1563815733985031,1,0,-3,-6,-2,8,-3,2
1563815733998023,-2,-2,2,3,3,-1,-2,-1
1563815733998023,0,-2,-4,-6,-8,-22,-10,-3
1563815734000021,1,4,7,8,7,13,18,3
1563815734000021,-11,-1,-2,-3,-17,-12,-6,-10
1563815734012051,12,3,-1,-4,-1,2,5,6
1563815734012051,-1,3,4,4,13,19,-5,-4
1563815734021007,-2,-7,-4,-4,-6,-12,15,4
1563815734021007,0,4,2,3,6,1,-10,-2
1563815734035999,-7,-5,-5,-2,-7,-9,-8,-5
1563815734035999,1,-2,-1,0,-1,5,22,3
1563815734036998,-2,1,2,8,-1,-13,-19,-5
1563815734036998,3,1,-1,-11,-13,1,4,0
1563815734058049,-3,-1,-1,-6,-3,-20,-9,-5
1563815734058049,0,-4,-6,-7,-6,16,-18,-2
1563815734059984,-5,-5,-6,-6,1,5,-5,-1
1563815734059984,0,-2,4,5,5,-5,2,3
1563815734071977,-2,3,6,2,-1,12,-33,-10
1563815734071977,-5,-2,-3,0,2,-9,13,0
1563815734080972,1,-3,-4,2,2,4,-10,0
1563815734080972,1,-3,-5,-15,-10,-1,-8,0
1563815734095966,-5,-2,2,2,4,5,10,-2
1563815734095966,0,-3,2,7,2,-3,-4,-3
1563815734097963,0,0,0,-4,-3,0,16,5
