timestamp,roll,pitch,yaw
1563815718539888,-0.259226,0.715363,-2.36742
1563815718554878,-0.279054,0.743828,-2.38005
1563815718585861,-0.299566,0.770518,-2.39415
1563815718600852,-0.31937,0.795165,-2.40891
1563815718616843,-0.338057,0.817984,-2.42368
1563815718638830,-0.355493,0.838974,-2.43835
1563815718659819,-0.37172,0.858219,-2.45295
1563815718674810,-0.38692,0.876535,-2.46755
1563815718729778,-0.401405,0.89345,-2.48139
1563815718731777,-0.415751,0.908937,-2.49481
1563815718739772,-0.429759,0.922926,-2.50758
1563815718759761,-0.44321,0.935292,-2.51964
1563815718779750,-0.455239,0.946378,-2.53073
1563815718842713,-0.466612,0.956288,-2.54175
1563815718842713,-0.478338,0.965571,-2.55345
1563815718843712,-0.489392,0.97401,-2.56436
1563815718862701,-0.500714,0.981678,-2.57455
1563815718877693,-0.511631,0.987998,-2.58379
1563815718901679,-0.523293,0.993857,-2.59331
1563815718917670,-0.534549,0.998828,-2.60242
1563815718944655,-0.542817,1.00116,-2.6094
1563815718954649,-0.553515,1.00522,-2.61874
1563815718977636,-0.561064,1.0067,-2.62455
1563815718997623,-0.569188,1.00919,-2.63039
1563815719014615,-0.575968,1.01125,-2.635
1563815719037601,-0.581188,1.01294,-2.63884
1563815719057591,-0.585207,1.01399,-2.64209
1563815719082575,-0.588546,1.01515,-2.64489
1563815719105562,-0.5919,1.0163,-2.64771
1563815719117558,-0.595227,1.01745,-2.65041
1563815719135545,-0.598427,1.01886,-2.65291
1563815719157535,-0.601149,1.01985,-2.65506
1563815719177521,-0.601329,1.02011,-2.65517
1563815719195511,-0.601899,1.02045,-2.6557
1563815719217498,-0.602096,1.02152,-2.65597
1563815719237487,-0.602453,1.02221,-2.65614
1563815719262472,-0.603144,1.02304,-2.65603
1563815719277464,-0.6048,1.0234,-2.6569
1563815719306448,-0.605015,1.02357,-2.65704
1563815719315442,-0.605551,1.02374,-2.6575
1563815719336429,-0.60629,1.02405,-2.65777
1563815719359416,-0.607431,1.02414,-2.65787
1563815719381404,-0.608706,1.02421,-2.6579
1563815719396396,-0.60995,1.0243,-2.65812
1563815719417383,-0.609707,1.02409,-2.65731
1563815719434374,-0.608902,1.02355,-2.65631
1563815719456361,-0.608308,1.02336,-2.65537
1563815719477349,-0.607915,1.02288,-2.65426
1563815719494339,-0.607942,1.02264,-2.6533
1563815719516327,-0.607414,1.02234,-2.6522
1563815719553305,-0.607435,1.02223,-2.65189
1563815719568296,-0.607712,1.0223,-2.65186
1563815719576293,-0.608336,1.02252,-2.65189
1563815719598279,-0.608967,1.02301,-2.65197
1563815719614271,-0.609006,1.02319,-2.65205
1563815719636258,-0.60922,1.02336,-2.65218
1563815719658246,-0.61057,1.02323,-2.6533
1563815719674246,-0.612301,1.02317,-2.6545
1563815719697223,-0.614654,1.02281,-2.65595
1563815719719210,-0.615852,1.02215,-2.65703
1563815719733202,-0.617026,1.02178,-2.65835
1563815719757189,-0.618755,1.02147,-2.65982
1563815719779176,-0.620224,1.02106,-2.66079
1563815719794168,-0.6222,1.0209,-2.66221
1563815719823150,-0.623472,1.0206,-2.66343
1563815719839142,-0.624142,1.0205,-2.66409
1563815719862129,-0.624731,1.02029,-2.66432
1563815719883116,-0.625132,1.02007,-2.66416
1563815719899108,-0.625379,1.02015,-2.66432
1563815719922094,-0.625556,1.02014,-2.66438
1563815719943082,-0.625804,1.02022,-2.66454
1563815719959073,-0.625775,1.02031,-2.66453
1563815719982060,-0.62727,1.02006,-2.66524
1563815720003048,-0.629119,1.01978,-2.66609
1563815720027034,-0.630613,1.01953,-2.66681
1563815720043024,-0.631754,1.01913,-2.66746
1563815720063017,-0.631974,1.0193,-2.6676
1563815720079004,-0.631974,1.0193,-2.6676
1563815720101992,-0.632264,1.01955,-2.66784
1563815720122981,-0.632194,1.01946,-2.66774
1563815720138970,-0.632556,1.01964,-2.66814
1563815720161956,-0.632556,1.01964,-2.66814
1563815720189941,-0.632959,1.02005,-2.66808
1563815720204932,-0.633207,1.02013,-2.66824
1563815720221922,-0.633249,1.02031,-2.66832
1563815720243909,-0.633153,1.01993,-2.66783
1563815720258900,-0.633596,1.0199,-2.66775
1563815720281889,-0.63436,1.01985,-2.66798
1563815720304876,-0.635269,1.01964,-2.66853
1563815720318866,-0.636325,1.01968,-2.66906
1563815720341853,-0.63731,1.0198,-2.66944
1563815720363841,-0.63731,1.0198,-2.66944
1563815720378832,-0.637283,1.01989,-2.66943
1563815720401819,-0.637575,1.02015,-2.66966
1563815720423808,-0.637575,1.02015,-2.66966
1563815720438797,-0.637796,1.02032,-2.66981
1563815720467781,-0.637796,1.02032,-2.66981
1563815720490767,-0.638616,1.02029,-2.67052
1563815720498764,-0.63859,1.02038,-2.6705
1563815720521750,-0.639881,1.02061,-2.67152
1563815720543737,-0.64013,1.02069,-2.67168
1563815720565725,-0.640103,1.02078,-2.67166
1563815720581716,-0.640352,1.02086,-2.67182
1563815720604701,-0.640352,1.02086,-2.67182
1563815720618695,-0.640424,1.02077,-2.67198
1563815720641683,-0.640717,1.02103,-2.67222
1563815720664670,-0.640717,1.02103,-2.67222
1563815720678659,-0.640647,1.02094,-2.67213
1563815720701647,-0.641948,1.0208,-2.67309
1563815720731628,-0.643402,1.02075,-2.67411
1563815720746620,-0.644882,1.0206,-2.67515
1563815720769610,-0.645836,1.02056,-2.67578
1563815720784599,-0.646907,1.02062,-2.67665
1563815720806586,-0.646907,1.02062,-2.67665
1563815720821597,-0.646907,1.02062,-2.67665
1563815720844564,-0.646952,1.02079,-2.67672
1563815720865572,-0.647131,1.02078,-2.67679
1563815720881545,-0.647176,1.02096,-2.67687
1563815720904531,-0.647176,1.02096,-2.67687
1563815720926517,-0.647141,1.0208,-2.67712
1563815720947509,-0.647069,1.02065,-2.67756
1563815720964496,-0.647131,1.0203,-2.67798
1563815720985503,-0.64702,1.01968,-2.67775
1563815721001476,-0.64737,1.01922,-2.67803
1563815721025461,-0.647528,1.0187,-2.67862
1563815721048448,-0.64739,1.0181,-2.67891
1563815721061440,-0.647973,1.01765,-2.67973
1563815721084428,-0.648643,1.01701,-2.68039
1563815721105418,-0.649473,1.01664,-2.68136
1563815721121407,-0.65125,1.01623,-2.68296
1563815721144394,-0.654245,1.01559,-2.68542
1563815721166382,-0.658267,1.01472,-2.68834
1563815721181371,-0.662526,1.01357,-2.69134
1563815721205358,-0.666505,1.01242,-2.69416
1563815721226365,-0.670344,1.01129,-2.69706
1563815721249333,-0.674223,1.01034,-2.70003
1563815721264324,-0.678106,1.00991,-2.70298
1563815721287311,-0.681867,1.00921,-2.70577
1563815721301302,-0.685093,1.00889,-2.70809
1563815721338281,-0.687934,1.00849,-2.71002
1563815721346295,-0.689343,1.00817,-2.71126
1563815721361268,-0.690342,1.00831,-2.71228
1563815721384255,-0.690342,1.00831,-2.71228
1563815721407242,-0.690394,1.00849,-2.71236
1563815721421236,-0.69071,1.00848,-2.71268
1563815721444221,-0.690642,1.00839,-2.7126
1563815721467208,-0.690658,1.0083,-2.7126
1563815721481203,-0.690658,1.0083,-2.7126
1563815721504186,-0.690642,1.00839,-2.7126
1563815721527178,-0.690642,1.00839,-2.7126
1563815721548161,-0.69089,1.00847,-2.71275
1563815721564152,-0.690957,1.00838,-2.71291
1563815721570152,-0.690957,1.00838,-2.71291
1563815721600135,-0.690957,1.00838,-2.71291
1563815721615123,-0.691206,1.00846,-2.71307
1563815721637131,-0.691206,1.00846,-2.71307
1563815721652104,-0.690957,1.00838,-2.71291
1563815721669091,-0.691206,1.00846,-2.71307
1563815721693078,-0.691206,1.00846,-2.71307
1563815721712067,-0.69148,1.00817,-2.71297
1563815721729057,-0.691796,1.00816,-2.71328
1563815721750049,-0.692219,1.0076,-2.7135
1563815721772052,-0.692828,1.00705,-2.71412
1563815721789024,-0.693588,1.00702,-2.71466
1563815721817007,-0.694896,1.00713,-2.71567
1563815721832018,-0.694963,1.00705,-2.71583
1563815721855985,-0.694947,1.00714,-2.71583
1563815721869977,-0.694947,1.00714,-2.71583
1563815721893964,-0.695196,1.00721,-2.71599
1563815721908954,-0.695196,1.00721,-2.71599
1563815721929942,-0.695196,1.00721,-2.71599
1563815721951949,-0.695196,1.00721,-2.71599
1563815721968939,-0.695196,1.00721,-2.71599
1563815721989926,-0.695445,1.00729,-2.71614
1563815722011895,-0.695445,1.00729,-2.71614
1563815722028886,-0.695445,1.00729,-2.71614
1563815722049877,-0.695511,1.0072,-2.7163
1563815722079859,-0.695511,1.0072,-2.7163
1563815722089850,-0.695459,1.00702,-2.71622
1563815722110838,-0.695834,1.00648,-2.71659
1563815722156812,-0.695834,1.00648,-2.71659
1563815722158811,-0.695818,1.00657,-2.7166
1563815722170804,-0.696067,1.00665,-2.71675
1563815722191811,-0.696067,1.00665,-2.71675
1563815722209782,-0.696067,1.00665,-2.71675
1563815722229771,-0.696067,1.00665,-2.71675
1563815722251758,-0.695843,1.00638,-2.71626
1563815722269747,-0.695558,1.00604,-2.71603
1563815722289736,-0.695558,1.00604,-2.71603
1563815722311724,-0.696346,1.00565,-2.71664
1563815722329712,-0.696623,1.00538,-2.71686
1563815722349702,-0.697146,1.005,-2.71732
1563815722371690,-0.698271,1.00513,-2.71825
1563815722389678,-0.698218,1.00495,-2.71817
1563815722412668,-0.698218,1.00495,-2.71817
1563815722431654,-0.698451,1.00512,-2.71833
1563815722450643,-0.698398,1.00494,-2.71825
1563815722470633,-0.698398,1.00494,-2.71825
1563815722492639,-0.698712,1.00493,-2.71856
1563815722509610,-0.698712,1.00493,-2.71856
1563815722529599,-0.698712,1.00493,-2.71856
1563815722552585,-0.699313,1.00454,-2.71876
1563815722569575,-0.699313,1.00454,-2.71876
1563815722589564,-0.699313,1.00454,-2.71876
1563815722612551,-0.699313,1.00454,-2.71876
1563815722643534,-0.699493,1.00453,-2.71884
1563815722649529,-0.699561,1.00462,-2.71892
1563815722672517,-0.699561,1.00462,-2.71892
1563815722690505,-0.699627,1.00453,-2.71907
1563815722717489,-0.699559,1.00444,-2.719
1563815722733482,-0.699627,1.00453,-2.71907
1563815722754469,-0.700411,1.00414,-2.71968
1563815722771461,-0.701194,1.00375,-2.72029
1563815722787450,-0.701928,1.0032,-2.72113
1563815722810436,-0.702608,1.00247,-2.7219
1563815722831427,-0.703194,1.00218,-2.72243
1563815722847418,-0.704093,1.00188,-2.72327
1563815722870410,-0.704744,1.0015,-2.72396
1563815722891400,-0.704758,1.00141,-2.72395
1563815722907384,-0.704691,1.00132,-2.72388
1563815722930370,-0.704758,1.00141,-2.72395
1563815722951361,-0.704823,1.00132,-2.72411
1563815722967348,-0.705003,1.00131,-2.72419
1563815722990355,-0.704937,1.0007,-2.724
1563815723012322,-0.704951,0.999903,-2.72397
1563815723033331,-0.705402,0.998913,-2.72424
1563815723063295,-0.706512,0.998153,-2.72489
1563815723078292,-0.707077,0.997243,-2.72508
1563815723086284,-0.707671,0.996866,-2.7256
1563815723117265,-0.708006,0.996502,-2.72598
1563815723131256,-0.708006,0.996502,-2.72598
1563815723147244,-0.708185,0.996492,-2.72605
1563815723169231,-0.708185,0.996492,-2.72605
1563815723192218,-0.708185,0.996492,-2.72605
1563815723206210,-0.708664,0.996037,-2.72665
1563815723229207,-0.708905,0.995238,-2.72686
1563815723258224,-0.709585,0.994423,-2.7276
1563815723266176,-0.710405,0.993508,-2.72824
1563815723289163,-0.711581,0.992574,-2.72903
1563815723335136,-0.712679,0.991825,-2.72999
1563815723337135,-0.713508,0.99135,-2.73073
1563815723349131,-0.714368,0.991397,-2.73149
1563815723372119,-0.714368,0.991397,-2.73149
1563815723386111,-0.714368,0.991397,-2.73149
1563815723415094,-0.714315,0.991225,-2.73141
1563815723432083,-0.714378,0.991137,-2.73156
1563815723446107,-0.715852,0.991149,-2.73261
1563815723470060,-0.717143,0.990992,-2.73334
1563815723492055,-0.718763,0.990473,-2.73444
1563815723506040,-0.719961,0.990061,-2.73524
1563815723529026,-0.721165,0.989389,-2.7361
1563815723552013,-0.722178,0.988809,-2.73658
1563815723579996,-0.72295,0.988321,-2.73651
1563815723588990,-0.723583,0.987933,-2.73654
1563815723617997,-0.723583,0.987933,-2.73654
1563815723641963,-0.723583,0.987933,-2.73654
1563815723656952,-0.723583,0.987933,-2.73654
1563815723671951,-0.724546,0.988144,-2.73722
1563815723692991,-0.724546,0.988144,-2.73722
1563815723708924,-0.724546,0.988144,-2.73722
1563815723731911,-0.72487,0.987782,-2.73759
1563815723752898,-0.724782,0.987267,-2.73772
1563815723768893,-0.725495,0.986626,-2.73852
1563815723798876,-0.726258,0.98598,-2.73917
1563815723812863,-0.726962,0.985597,-2.73989
1563815723828866,-0.727106,0.985244,-2.74018
1563815723857896,-0.727051,0.985073,-2.7401
1563815723873831,-0.727051,0.985073,-2.7401
1563815723888819,-0.727051,0.985073,-2.7401
1563815723911806,-0.727051,0.985073,-2.7401
1563815723934796,-0.726051,0.985393,-2.7397
1563815723949786,-0.725159,0.986055,-2.73946
1563815723971771,-0.72378,0.986567,-2.73862
1563815723994761,-0.723162,0.986854,-2.73794
1563815724009752,-0.723162,0.986854,-2.73794
1563815724031741,-0.723162,0.986854,-2.73794
1563815724054727,-0.723741,0.986476,-2.73843
1563815724076718,-0.724799,0.985905,-2.7394
1563815724099699,-0.725671,0.985596,-2.73989
1563815724114691,-0.727325,0.985506,-2.74098
1563815724128686,-0.728175,0.98538,-2.74182
1563815724151668,-0.727384,0.986479,-2.74208
1563815724174655,-0.725428,0.98844,-2.742
1563815724188648,-0.721735,0.990837,-2.74025
1563815724212632,-0.717858,0.993152,-2.73808
1563815724235621,-0.713813,0.994863,-2.73563
1563815724248615,-0.710434,0.995768,-2.73422
1563815724271601,-0.707486,0.995957,-2.73332
1563815724301615,-0.705578,0.995312,-2.73331
1563815724308586,-0.70481,0.99433,-2.73363
1563815724332565,-0.705202,0.992491,-2.73443
1563815724354557,-0.706523,0.990515,-2.73581
1563815724368545,-0.706829,0.988158,-2.73642
1563815724391530,-0.707416,0.986139,-2.73726
1563815724414516,-0.707494,0.984315,-2.73743
1563815724435505,-0.707638,0.982564,-2.73734
1563815724451503,-0.707379,0.981182,-2.73683
1563815724474486,-0.707391,0.980389,-2.73648
1563815724495483,-0.707151,0.979614,-2.73599
1563815724519456,-0.707567,0.978972,-2.73586
1563815724541446,-0.70811,0.978317,-2.73563
1563815724555445,-0.709115,0.977739,-2.73611
1563815724571429,-0.711749,0.977078,-2.73797
1563815724601421,-0.716886,0.975035,-2.74016
1563815724615402,-0.719219,0.971628,-2.73779
1563815724639396,-0.721613,0.969115,-2.73617
1563815724654411,-0.724945,0.968251,-2.73826
1563815724675428,-0.726414,0.968563,-2.74203
1563815724691391,-0.727776,0.969331,-2.74633
1563815724714348,-0.730502,0.970154,-2.74974
1563815724735373,-0.734465,0.970615,-2.7522
1563815724751325,-0.738532,0.970712,-2.75414
1563815724774312,-0.741347,0.970382,-2.75615
1563815724795301,-0.743041,0.969439,-2.7584
1563815724811351,-0.744174,0.968958,-2.75988
1563815724834276,-0.747597,0.968409,-2.76211
1563815724855265,-0.751928,0.967204,-2.76472
1563815724871298,-0.755602,0.965782,-2.76694
1563815724894243,-0.759992,0.964311,-2.76932
1563815724915291,-0.764142,0.963451,-2.77083
1563815724932226,-0.768143,0.962696,-2.77308
1563815724954216,-0.772454,0.964072,-2.77883
1563815724977196,-0.775557,0.967004,-2.78596
1563815724993187,-0.777228,0.969437,-2.79195
1563815725014175,-0.778836,0.971352,-2.79618
1563815725037165,-0.777667,0.970584,-2.79647
1563815725052152,-0.775478,0.968223,-2.79466
1563815725074144,-0.774162,0.965361,-2.79185
1563815725097128,-0.77127,0.962178,-2.78819
1563815725111119,-0.767461,0.958394,-2.78441
1563815725134107,-0.763333,0.956422,-2.78061
1563815725156092,-0.763541,0.955038,-2.78042
1563815725171083,-0.764,0.955014,-2.7811
1563815725194070,-0.763859,0.955036,-2.78182
1563815725217057,-0.763313,0.954574,-2.78236
1563815725247044,-0.761966,0.9539,-2.78184
1563815725254037,-0.761107,0.953273,-2.78077
1563815725277027,-0.761022,0.953006,-2.77987
1563815725291014,-0.759877,0.952646,-2.77844
1563815725314002,-0.759021,0.952184,-2.77759
1563815725336990,-0.758515,0.951704,-2.77689
1563815725350988,-0.758239,0.95138,-2.77635
1563815725373969,-0.758026,0.951379,-2.77579
1563815725396955,-0.757293,0.950744,-2.77494
1563815725410947,-0.757144,0.950407,-2.77429
1563815725433932,-0.75752,0.950119,-2.77407
1563815725462922,-0.75752,0.950119,-2.77407
1563815725477911,-0.75752,0.950119,-2.77407
1563815725493901,-0.757874,0.950013,-2.77419
1563815725523894,-0.758707,0.950036,-2.77427
1563815725537876,-0.758668,0.949779,-2.77386
1563815725561860,-0.757939,0.949145,-2.77301
1563815725576851,-0.756865,0.948527,-2.77202
1563815725597842,-0.75557,0.947839,-2.77059
1563815725613851,-0.7548,0.9472,-2.76957
1563815725636817,-0.753332,0.946361,-2.76817
1563815725665799,-0.752044,0.945587,-2.76703
1563815725673816,-0.751255,0.94513,-2.76637
1563815725696782,-0.751255,0.94513,-2.76637
1563815725717770,-0.751255,0.94513,-2.76637
1563815725741758,-0.751595,0.945276,-2.76673
1563815725756748,-0.751915,0.945516,-2.76742
1563815725779736,-0.753146,0.946041,-2.76876
1563815725800729,-0.754633,0.946292,-2.76999
1563815725816713,-0.756076,0.946291,-2.77111
1563815725837702,-0.756651,0.946256,-2.77167
1563815725854692,-0.757741,0.946359,-2.77267
1563815725884677,-0.757795,0.946522,-2.77275
1563815725899665,-0.757795,0.946522,-2.77275
1563815725914664,-0.757795,0.946522,-2.77275
1563815725936648,-0.757467,0.945951,-2.77242
1563815725966635,-0.757094,0.945129,-2.77199
1563815725975621,-0.755696,0.944031,-2.7707
1563815725996613,-0.753352,0.942643,-2.76858
1563815726027593,-0.748366,0.940241,-2.7645
1563815726033589,-0.738466,0.936033,-2.75644
1563815726056576,-0.719668,0.929128,-2.74157
1563815726079562,-0.695599,0.916984,-2.72461
1563815726092554,-0.673699,0.897569,-2.70941
1563815726101549,-0.652189,0.868882,-2.69256
1563815726122540,-0.630155,0.829614,-2.67508
1563815726144530,-0.607684,0.782752,-2.65901
1563815726162514,-0.583748,0.730092,-2.64377
1563815726185502,-0.556368,0.67095,-2.62715
1563815726212507,-0.525991,0.606264,-2.61
1563815726221488,-0.494838,0.539714,-2.5942
1563815726242472,-0.464273,0.471909,-2.58013
1563815726264478,-0.433062,0.403895,-2.56755
1563815726281447,-0.401393,0.337875,-2.55693
1563815726302456,-0.369381,0.274702,-2.548
1563815726324422,-0.338622,0.214873,-2.54148
1563815726341417,-0.309857,0.158789,-2.53751
1563815726362401,-0.281695,0.104492,-2.53467
1563815726384409,-0.254693,0.0532577,-2.53249
1563815726407392,-0.230939,0.00563356,-2.53063
1563815726422365,-0.210303,-0.0392967,-2.52983
1563815726444353,-0.192212,-0.0819865,-2.53039
1563815726467340,-0.176711,-0.122383,-2.53209
1563815726482331,-0.163672,-0.159649,-2.53357
1563815726504318,-0.152992,-0.195004,-2.53468
1563815726521312,-0.143123,-0.226419,-2.53653
1563815726543296,-0.134172,-0.254714,-2.5389
1563815726564314,-0.126906,-0.279394,-2.54164
1563815726581274,-0.120787,-0.30046,-2.54335
1563815726602262,-0.114459,-0.317818,-2.54376
1563815726633244,-0.107317,-0.331665,-2.54387
1563815726641240,-0.100386,-0.342704,-2.54418
1563815726662228,-0.0945201,-0.352021,-2.54558
1563815726686213,-0.090074,-0.3592,-2.54743
1563815726701205,-0.0866753,-0.363829,-2.54831
1563815726722195,-0.0827384,-0.366569,-2.54831
1563815726744210,-0.0779359,-0.368159,-2.5476
1563815726761170,-0.0732826,-0.368911,-2.54672
1563815726782160,-0.0702195,-0.369216,-2.54566
1563815726804164,-0.0683022,-0.369291,-2.54429
1563815726821137,-0.0666947,-0.369423,-2.54278
1563815726842125,-0.0654548,-0.369446,-2.5412
1563815726860113,-0.0642861,-0.369452,-2.5399
1563815726882102,-0.0635983,-0.369834,-2.53875
1563815726902109,-0.0630986,-0.370659,-2.538
1563815726920080,-0.0622055,-0.371211,-2.53749
1563815726942078,-0.0613297,-0.371477,-2.53706
1563815726964054,-0.0602002,-0.372341,-2.53692
1563815726980048,-0.0599715,-0.372536,-2.53707
1563815727003037,-0.0596445,-0.372772,-2.53714
1563815727022023,-0.0594157,-0.372967,-2.5373
1563815727040011,-0.0592516,-0.373289,-2.53735
1563815727062998,-0.0590227,-0.373483,-2.5375
1563815727089992,-0.0588621,-0.373781,-2.53745
1563815727099979,-0.0586331,-0.373975,-2.5376
1563815727128960,-0.0584285,-0.374174,-2.53765
1563815727141956,-0.0582642,-0.374496,-2.53771
1563815727159942,-0.0580387,-0.374666,-2.53775
1563815727182930,-0.057997,-0.37495,-2.53778
1563815727201949,-0.0570429,-0.375638,-2.5378
1563815727219910,-0.0560778,-0.376058,-2.5381
1563815727242897,-0.0554963,-0.376485,-2.53843
1563815727261885,-0.0555154,-0.376864,-2.53896
1563815727279874,-0.0552662,-0.377698,-2.53956
1563815727302861,-0.0551481,-0.378378,-2.53993
1563815727321858,-0.0550695,-0.378514,-2.53985
1563815727339841,-0.0548798,-0.378832,-2.54
1563815727369823,-0.0547972,-0.378993,-2.54003
1563815727381825,-0.0545919,-0.379192,-2.54009
1563815727407801,-0.0543137,-0.380553,-2.54033
1563815727422793,-0.0540807,-0.381947,-2.54048
1563815727442782,-0.0538502,-0.382141,-2.54064
1563815727465768,-0.0538118,-0.382401,-2.54056
1563815727482759,-0.0535812,-0.382596,-2.54072
1563815727503747,-0.0534985,-0.382757,-2.54075
1563815727519738,-0.0532928,-0.382955,-2.5408
1563815727541724,-0.0531851,-0.383112,-2.54093
1563815727562712,-0.0529793,-0.383311,-2.54098
1563815727579703,-0.0529007,-0.383447,-2.5409
1563815727601690,-0.0528179,-0.383609,-2.54093
1563815727622678,-0.0527101,-0.383766,-2.54106
1563815727639668,-0.0525043,-0.383964,-2.54112
1563815727661657,-0.0524214,-0.384126,-2.54115
1563815727699641,-0.0523385,-0.384287,-2.54117
1563815727702632,-0.0522349,-0.384419,-2.5412
1563815727721623,-0.052152,-0.38458,-2.54123
1563815727744609,-0.0519461,-0.384779,-2.54128
1563815727759599,-0.0518985,-0.385414,-2.54183
1563815727781590,-0.0522156,-0.385961,-2.54242
1563815727804573,-0.052123,-0.386497,-2.54308
1563815727819585,-0.0518131,-0.387088,-2.54358
1563815727841552,-0.0517299,-0.387249,-2.54361
1563815727864560,-0.0512016,-0.38751,-2.54402
1563815727879530,-0.050912,-0.38787,-2.5441
1563815727901518,-0.0504338,-0.388139,-2.54431
1563815727924505,-0.0500788,-0.388371,-2.5445
1563815727938496,-0.0499955,-0.388532,-2.54453
1563815727962482,-0.0498913,-0.388664,-2.54455
1563815727984470,-0.049808,-0.388825,-2.54458
1563815727998462,-0.0497246,-0.388986,-2.54461
1563815728022448,-0.0496014,-0.389024,-2.54464
1563815728044435,-0.049518,-0.389185,-2.54466
1563815728058427,-0.048819,-0.389918,-2.54475
1563815728081418,-0.04874,-0.390054,-2.54467
1563815728104402,-0.0486566,-0.390215,-2.5447
1563815728118412,-0.0485732,-0.390376,-2.54473
1563815728141379,-0.0484245,-0.390409,-2.54486
1563815728164366,-0.048341,-0.390571,-2.54489
1563815728186354,-0.0482575,-0.390732,-2.54492
1563815728201344,-0.0481741,-0.390893,-2.54495
1563815728224331,-0.0480951,-0.39103,-2.54487
1563815728239324,-0.0474354,-0.391886,-2.54497
1563815728261311,-0.0465467,-0.392528,-2.54518
1563815728284297,-0.0457764,-0.393158,-2.54548
1563815728305286,-0.0456928,-0.393319,-2.54551
1563815728321276,-0.0455438,-0.393352,-2.54564
1563815728351260,-0.04546,-0.393514,-2.54567
1563815728365252,-0.0453413,-0.393526,-2.54559
1563815728381241,-0.0452576,-0.393687,-2.54562
1563815728404228,-0.0451341,-0.393725,-2.54565
1563815728434211,-0.0450248,-0.393881,-2.54578
1563815728441208,-0.0448719,-0.394708,-2.54588
1563815728464194,-0.0447228,-0.39474,-2.54601
1563815728485181,-0.044639,-0.394902,-2.54604
1563815728502172,-0.0445551,-0.395064,-2.54607
1563815728524159,-0.0444713,-0.395225,-2.5461
1563815728545167,-0.0443477,-0.395263,-2.54613
1563815728562138,-0.0442382,-0.39542,-2.54626
1563815728584125,-0.0441544,-0.395581,-2.54629
1563815728605113,-0.0439236,-0.396009,-2.54677
1563815728622103,-0.0438396,-0.396171,-2.5468
1563815728644090,-0.0438396,-0.396171,-2.5468
1563815728665082,-0.0436903,-0.396203,-2.54693
1563815728682069,-0.0436063,-0.396365,-2.54696
1563815728704057,-0.043646,-0.396489,-2.54696
1563815728725044,-0.043567,-0.396625,-2.54689
1563815728742037,-0.043483,-0.396787,-2.54692
1563815728764023,-0.0433593,-0.396824,-2.54695
1563815728794006,-0.0432496,-0.396981,-2.54708
1563815728802007,-0.0431656,-0.397142,-2.54711
1563815728823988,-0.0431656,-0.397142,-2.54711
1563815728846977,-0.0430815,-0.397304,-2.54714
1563815728861966,-0.0430025,-0.39744,-2.54706
1563815728883953,-0.0430421,-0.397564,-2.54707
1563815728906941,-0.0429323,-0.397721,-2.5472
1563815728920932,-0.0428086,-0.397758,-2.54723
1563815728943919,-0.0428482,-0.397883,-2.54723
1563815728966909,-0.0427642,-0.398044,-2.54726
1563815728980898,-0.0426801,-0.398206,-2.5473
1563815729003885,-0.042601,-0.398342,-2.54722
1563815729026871,-0.0425752,-0.398337,-2.54732
1563815729040866,-0.0424911,-0.398499,-2.54735
1563815729063851,-0.042407,-0.398661,-2.54738
1563815729086838,-0.0424466,-0.398785,-2.54739
1563815729100830,-0.0423229,-0.398822,-2.54742
1563815729124818,-0.0422388,-0.398984,-2.54745
1563815729146836,-0.0422388,-0.398984,-2.54745
1563815729160801,-0.0421338,-0.399115,-2.54747
1563815729183809,-0.0421734,-0.399239,-2.54748
1563815729206771,-0.0420497,-0.399277,-2.5475
1563815729220760,-0.0419655,-0.399438,-2.54754
1563815729243751,-0.0419655,-0.399438,-2.54754
1563815729266734,-0.0418813,-0.3996,-2.54757
1563815729295716,-0.0417575,-0.399638,-2.54759
1563815729303713,-0.0417712,-0.399757,-2.5477
1563815729326699,-0.041687,-0.399919,-2.54773
1563815729349686,-0.0416079,-0.400055,-2.54766
1563815729364679,-0.0414841,-0.400092,-2.54768
1563815729386666,-0.0413999,-0.400254,-2.54772
1563815729409652,-0.0414395,-0.400378,-2.54772
1563815729424643,-0.0414395,-0.400378,-2.54772
1563815729446631,-0.0413293,-0.400535,-2.54785
1563815729467618,-0.0412451,-0.400697,-2.54789
1563815729484610,-0.0412451,-0.400697,-2.54789
1563815729506596,-0.0411608,-0.400859,-2.54792
1563815729527585,-0.0410421,-0.40087,-2.54784
1563815729544575,-0.0410817,-0.400995,-2.54784
1563815729566562,-0.0409579,-0.401032,-2.54787
1563815729587550,-0.0409714,-0.401151,-2.54798
1563815729604541,-0.0408872,-0.401313,-2.54801
1563815729627527,-0.0408029,-0.401475,-2.54804
1563815729649515,-0.040679,-0.401513,-2.54807
1563815729664506,-0.0407186,-0.401637,-2.54807
1563815729686493,-0.0406394,-0.401773,-2.54799
1563815729709480,-0.0404895,-0.401805,-2.54813
1563815729724472,-0.0405291,-0.401929,-2.54813
1563815729746458,-0.0404447,-0.402091,-2.54816
1563815729769446,-0.0403208,-0.402129,-2.54819
1563815729784441,-0.0403604,-0.402253,-2.54819
1563815729806424,-0.040276,-0.402415,-2.54823
1563815729829411,-0.040276,-0.402415,-2.54823
1563815729851398,-0.0401969,-0.402551,-2.54815
1563815729867389,-0.0401708,-0.402546,-2.54825
1563815729889376,-0.0400864,-0.402708,-2.54828
1563815729904370,-0.0400864,-0.402708,-2.54828
1563815729926356,-0.040126,-0.402832,-2.54829
1563815729949343,-0.0400416,-0.402994,-2.54832
1563815729963335,-0.0400416,-0.402994,-2.54832
1563815729986329,-0.0399572,-0.403156,-2.54835
1563815730015305,-0.0399968,-0.403281,-2.54836
1563815730023301,-0.0398781,-0.403292,-2.54828
1563815730046288,-0.0399176,-0.403416,-2.54828
1563815730069276,-0.0398071,-0.403573,-2.54842
1563815730083266,-0.0398071,-0.403573,-2.54842
1563815730106275,-0.0397226,-0.403735,-2.54845
1563815730129240,-0.0397622,-0.40386,-2.54845
1563815730143239,-0.0396777,-0.404022,-2.54848
1563815730167221,-0.0396777,-0.404022,-2.54848
1563815730189205,-0.0395986,-0.404157,-2.54841
1563815730210253,-0.0396382,-0.404282,-2.54841
1563815730227185,-0.0395141,-0.404319,-2.54844
1563815730257168,-0.0395275,-0.404439,-2.54855
1563815730270182,-0.0394562,-0.405105,-2.54862
1563815730294150,-0.0393717,-0.405267,-2.54865
1563815730309138,-0.0392872,-0.405429,-2.54869
1563815730330164,-0.0392872,-0.405429,-2.54869
1563815730347123,-0.0391051,-0.4061,-2.54928
1563815730369103,-0.0388116,-0.406695,-2.54969
1563815730390091,-0.0382431,-0.407359,-2.55026
1563815730407081,-0.0378376,-0.40811,-2.55081
1563815730429070,-0.0375558,-0.408824,-2.55133
1563815730458051,-0.037385,-0.409381,-2.55172
1563815730467046,-0.0371151,-0.410215,-2.55235
1563815730489033,-0.0368848,-0.410788,-2.55305
1563815730510023,-0.0369351,-0.411265,-2.55349
1563815730527014,-0.0370648,-0.411607,-2.554
1563815730548999,-0.0368533,-0.412039,-2.55438
1563815730569986,-0.0368638,-0.412392,-2.55481
1563815730576982,-0.0371052,-0.412578,-2.55518
1563815730591974,-0.0374766,-0.412699,-2.55542
1563815730614980,-0.0378032,-0.412723,-2.55576
1563815730636948,-0.038169,-0.412872,-2.5561
1563815730651940,-0.038508,-0.413015,-2.55655
1563815730681921,-0.0390568,-0.41296,-2.55693
1563815730696917,-0.039757,-0.412873,-2.55719
1563815730711924,-0.0405572,-0.412511,-2.5572
1563815730744886,-0.0412649,-0.412163,-2.55702
1563815730756898,-0.0416542,-0.411553,-2.55679
1563815730771890,-0.0422654,-0.410863,-2.55661
1563815730795859,-0.0430057,-0.410109,-2.55629
1563815730816891,-0.0437137,-0.409377,-2.55618
1563815730831841,-0.0442123,-0.408844,-2.55614
1563815730854828,-0.0445991,-0.408468,-2.55623
1563815730876834,-0.045175,-0.408419,-2.55652
1563815730891846,-0.0455543,-0.40869,-2.55697
1563815730914850,-0.0460172,-0.409184,-2.55732
1563815730936778,-0.0464532,-0.409673,-2.55778
1563815730951769,-0.0468969,-0.41046,-2.55807
1563815730974795,-0.0468161,-0.411389,-2.55857
1563815730996775,-0.0463539,-0.412282,-2.55894
1563815731013734,-0.0461728,-0.413638,-2.5593
1563815731034722,-0.0463839,-0.414592,-2.55964
1563815731052712,-0.0461233,-0.415699,-2.56
1563815731074699,-0.0457255,-0.416723,-2.56027
1563815731095685,-0.0455494,-0.417668,-2.56059
1563815731112677,-0.0452089,-0.418524,-2.56094
1563815731132686,-0.0449602,-0.419367,-2.56147
1563815731154661,-0.0448516,-0.420057,-2.56176
1563815731172646,-0.0448452,-0.420678,-2.56202
1563815731192637,-0.044822,-0.421206,-2.56227
1563815731214650,-0.044822,-0.421206,-2.56227
1563815731239604,-0.0447828,-0.421081,-2.56227
1563815731253597,-0.0447828,-0.421081,-2.56227
1563815731274584,-0.0449077,-0.421044,-2.56224
1563815731292574,-0.0454603,-0.420757,-2.5623
1563815731313559,-0.0462631,-0.419327,-2.56322
1563815731334548,-0.0480835,-0.416543,-2.5635
1563815731352537,-0.0533796,-0.412322,-2.56199
1563815731373525,-0.0618126,-0.405089,-2.55605
1563815731394574,-0.0692178,-0.393398,-2.54937
1563815731412505,-0.0749534,-0.377789,-2.54131
1563815731433492,-0.0787685,-0.358929,-2.53169
1563815731454481,-0.0838687,-0.33561,-2.52031
1563815731472470,-0.0969815,-0.308687,-2.5073
1563815731493457,-0.118195,-0.277057,-2.49321
1563815731514446,-0.141049,-0.239973,-2.47761
1563815731532435,-0.159441,-0.19914,-2.46307
1563815731553445,-0.177557,-0.155523,-2.44907
1563815731574447,-0.198575,-0.109489,-2.43671
1563815731592399,-0.224527,-0.061182,-2.42592
1563815731615390,-0.254518,-0.0115617,-2.41681
1563815731634417,-0.285996,0.0397629,-2.40911
1563815731652375,-0.317736,0.0915903,-2.40374
1563815731682350,-0.349755,0.1431,-2.40019
1563815731694350,-0.382334,0.194516,-2.39875
1563815731712331,-0.41559,0.244705,-2.39946
1563815731735351,-0.448474,0.294068,-2.40222
1563815731754340,-0.48061,0.341893,-2.40758
1563815731772304,-0.512387,0.388091,-2.41495
1563815731795285,-0.54473,0.431679,-2.42375
1563815731814274,-0.577079,0.471981,-2.43347
1563815731832272,-0.60875,0.509401,-2.44464
1563815731855254,-0.637708,0.542741,-2.45586
1563815731874241,-0.666037,0.573941,-2.4684
1563815731892241,-0.694049,0.603049,-2.48199
1563815731915216,-0.721874,0.629848,-2.4964
1563815731934204,-0.74901,0.654551,-2.51147
1563815731957190,-0.776307,0.676602,-2.5276
1563815731975180,-0.803699,0.696458,-2.54344
1563815731995169,-0.830785,0.71334,-2.55892
1563815732012160,-0.857501,0.728128,-2.57465
1563815732034146,-0.882649,0.740678,-2.59014
1563815732055156,-0.905762,0.751253,-2.60515
1563815732072125,-0.927038,0.760711,-2.61924
1563815732094112,-0.946809,0.769122,-2.63178
1563815732123095,-0.964613,0.776656,-2.64199
1563815732139086,-0.97955,0.783396,-2.6499
1563815732155084,-0.99191,0.789285,-2.65614
1563815732183061,-1.00211,0.794634,-2.66153
1563815732192062,-1.01145,0.799427,-2.66582
1563815732214045,-1.02103,0.802888,-2.66896
1563815732237031,-1.03,0.805643,-2.67072
1563815732254043,-1.03938,0.808267,-2.67191
1563815732274012,-1.04903,0.81047,-2.67267
1563815732295019,-1.05998,0.811754,-2.67384
1563815732310988,-1.07306,0.812635,-2.67564
1563815732333975,-1.08725,0.813154,-2.67823
1563815732354975,-1.10109,0.813507,-2.68061
1563815732371962,-1.11601,0.813291,-2.6835
1563815732401956,-1.13245,0.812272,-2.68619
1563815732416927,-1.15087,0.81049,-2.68844
1563815732430921,-1.16959,0.808563,-2.69023
1563815732461920,-1.1865,0.806645,-2.6921
1563815732474901,-1.20126,0.804982,-2.69358
1563815732490883,-1.21534,0.804035,-2.69348
1563815732513871,-1.22985,0.80313,-2.69204
1563815732536859,-1.24413,0.802434,-2.68948
1563815732550849,-1.25873,0.801283,-2.68642
1563815732573837,-1.27305,0.800001,-2.68197
1563815732597825,-1.28693,0.799334,-2.67439
1563815732610815,-1.30103,0.799246,-2.6632
1563815732633802,-1.31491,0.800269,-2.64893
1563815732656789,-1.32713,0.802585,-2.63167
1563815732678790,-1.33726,0.805351,-2.61044
1563815732701764,-1.34722,0.808376,-2.58582
1563815732716758,-1.35937,0.812734,-2.55955
1563815732730747,-1.37891,0.819721,-2.53423
1563815732754739,-1.40386,0.82756,-2.50829
1563815732776720,-1.43493,0.836524,-2.48563
1563815732797712,-1.46957,0.84964,-2.47001
1563815732814703,-1.49978,0.871208,-2.46362
1563815732844681,-1.5186,0.896583,-2.46465
1563815732866698,-1.52946,0.934614,-2.47516
1563815732883659,-1.53705,0.976901,-2.49246
1563815732896651,-1.54656,1.02101,-2.51533
1563815732917639,-1.56093,1.06503,-2.5458
1563815732934630,-1.58157,1.10649,-2.58481
1563815732957624,-1.61204,1.14408,-2.63174
1563815732977635,-1.65862,1.17615,-2.68826
1563815732994597,-1.7199,1.20331,-2.75163
1563815733017584,-1.79414,1.22401,-2.82223
1563815733037578,-1.87736,1.23856,-2.89923
1563815733054563,-1.96625,1.24754,-2.98101
1563815733076550,-2.05823,1.25093,-3.06566
1563815733099537,-2.14973,1.25025,3.13528
1563815733121524,-2.23614,1.24608,3.05991
1563815733136517,-2.3151,1.2403,2.99248
1563815733157511,-2.38452,1.23278,2.93279
1563815733187487,-2.4423,1.22455,2.88143
1563815733196481,-2.49156,1.21583,2.83623
1563815733217490,-2.53178,1.207,2.79824
1563815733234457,-2.56369,1.20054,2.76913
1563815733256445,-2.59089,1.19557,2.74708
1563815733277433,-2.613,1.19065,2.73249
1563815733294423,-2.62677,1.18738,2.72697
1563815733316415,-2.63582,1.18534,2.72644
1563815733337403,-2.64453,1.18444,2.72864
1563815733354395,-2.64961,1.18339,2.73536
1563815733376376,-2.64701,1.18324,2.74532
1563815733397365,-2.63808,1.18425,2.75595
1563815733413355,-2.62783,1.18591,2.76666
1563815733436343,-2.61835,1.18839,2.77806
1563815733458329,-2.60754,1.19239,2.78969
1563815733488319,-2.59525,1.19748,2.80094
1563815733496311,-2.58203,1.20309,2.81175
1563815733519295,-2.56992,1.2084,2.82138
1563815733533311,-2.55967,1.21477,2.82883
1563815733564270,-2.55094,1.22216,2.83497
1563815733579261,-2.54279,1.23067,2.84152
1563815733593252,-2.53407,1.24024,2.84714
1563815733624235,-2.52441,1.25136,2.8499
1563815733639248,-2.51509,1.26243,2.84905
1563815733654219,-2.50611,1.27309,2.84498
1563815733677227,-2.49447,1.28341,2.84083
1563815733699192,-2.47673,1.29379,2.8407
1563815733713184,-2.4475,1.30535,2.85296
1563815733737170,-2.4044,1.31535,2.8814
1563815733767155,-2.34708,1.32246,2.92433
1563815733788197,-2.27633,1.32646,2.97632
1563815733804136,-2.19205,1.32743,3.03427
1563815733819123,-2.09205,1.33191,3.10499
1563815733842112,-1.96697,1.33819,-3.07854
1563815733858101,-1.80816,1.34329,-2.93834
1563815733879108,-1.6181,1.34033,-2.76022
1563815733902077,-1.42854,1.32848,-2.57814
1563815733917067,-1.24119,1.30831,-2.40033
1563815733939062,-1.06123,1.27989,-2.23615
1563815733960102,-0.901738,1.242,-2.09468
1563815733984030,-0.76569,1.19305,-1.97439
1563815733999021,-0.646759,1.13608,-1.87005
1563815734020049,-0.546725,1.07381,-1.78695
1563815734036998,-0.468271,1.00564,-1.72543
1563815734058985,-0.404963,0.929695,-1.6791
1563815734079973,-0.346758,0.848718,-1.64041
1563815734096964,-0.296682,0.76803,-1.61146
1563815734141936,-0.256206,0.68759,-1.59032
1563815734148933,-0.222447,0.603465,-1.57566
1563815734163924,-0.193363,0.518695,-1.5677
1563815734180915,-0.169584,0.438194,-1.56655
1563815734199909,-0.151263,0.360753,-1.5719
1563815734216895,-0.13474,0.287332,-1.58152
1563815734244880,-0.117433,0.221609,-1.59214
1563815734261887,-0.099877,0.162996,-1.60436
1563815734276859,-0.0832671,0.110778,-1.62014
1563815734298847,-0.0682637,0.0663358,-1.63805
1563815734320866,-0.0526061,0.0284781,-1.65445
1563815734351829,-0.0362879,-0.00371678,-1.67077
1563815734364811,-0.021901,-0.0279043,-1.68678
1563815734379800,-0.0113487,-0.0459062,-1.70203
1563815734395791,-0.00373709,-0.0605167,-1.716
1563815734418782,0.00218193,-0.0702366,-1.72874
1563815734441768,0.00669962,-0.0761174,-1.73956
1563815734456756,0.0108956,-0.0802539,-1.74888
1563815734478744,0.0146747,-0.0837066,-1.75707
1563815734501730,0.0175754,-0.0864417,-1.76391
1563815734515732,0.0185947,-0.0868301,-1.77035
1563815734538721,0.0177289,-0.0860232,-1.77623
1563815734561698,0.0163858,-0.0859686,-1.78139
1563815734575692,0.015628,-0.0875049,-1.78595
1563815734598677,0.0156613,-0.0901849,-1.78983
1563815734621675,0.0161318,-0.0921245,-1.79348
1563815734635654,0.0173188,-0.0946778,-1.79589
1563815734659641,0.0190422,-0.0983054,-1.7978
1563815734681627,0.0207526,-0.102539,-1.79959
1563815734695624,0.0225337,-0.107462,-1.80108
1563815734719608,0.0241465,-0.113015,-1.8028
1563815734741594,0.0254038,-0.118426,-1.80437
1563815734755585,0.0258247,-0.12316,-1.80638
1563815734779574,0.0256802,-0.127433,-1.80835
1563815734801560,0.0257714,-0.131418,-1.81033
1563815734815555,0.0266407,-0.135404,-1.81217
1563815734839549,0.0278739,-0.138733,-1.814
1563815734861525,0.0287252,-0.141758,-1.81578
1563815734876517,0.0289638,-0.144157,-1.81727
1563815734899502,0.0289054,-0.145734,-1.8186
1563815734921490,0.0290105,-0.14667,-1.81953
1563815734942508,0.0296002,-0.147383,-1.82043
1563815734959467,0.0305159,-0.148047,-1.82101
1563815734981457,0.0313,-0.148477,-1.8215
1563815735010442,0.0318821,-0.14875,-1.82179
1563815735026432,0.0324946,-0.148579,-1.82205
1563815735041420,0.0328532,-0.148535,-1.82227
1563815735062410,0.0330615,-0.148685,-1.82249
1563815735069425,0.0331684,-0.148934,-1.82233
1563815735084401,0.0335098,-0.149066,-1.82199
1563815735107383,0.0344669,-0.149209,-1.8217
1563815735131371,0.0358477,-0.149394,-1.82125
1563815735144367,0.0373939,-0.149553,-1.82063
1563815735174386,0.0385812,-0.149757,-1.8198
1563815735185339,0.0395579,-0.150264,-1.81931
1563815735204363,0.0407953,-0.150808,-1.81854
1563815735227316,0.0420402,-0.151358,-1.81795
1563815735245309,0.0432454,-0.152177,-1.81756
1563815735272290,0.0440689,-0.152869,-1.81694
1563815735288283,0.0448168,-0.153658,-1.81632
1563815735305306,0.0452043,-0.154322,-1.81583
1563815735324291,0.0458317,-0.154863,-1.81517
1563815735347260,0.046431,-0.155239,-1.81448
1563815735365238,0.0469604,-0.155705,-1.81381
1563815735384285,0.0473282,-0.15576,-1.81287
1563815735407214,0.0476205,-0.155912,-1.81193
1563815735425202,0.0476504,-0.156015,-1.81113
1563815735444192,0.0479342,-0.156162,-1.81002
1563815735467238,0.0484209,-0.156468,-1.80912
1563815735485171,0.0488941,-0.156607,-1.80837
1563815735512175,0.0491298,-0.156846,-1.80766
1563815735527205,0.0493179,-0.157177,-1.80733
1563815735545155,0.0497904,-0.157562,-1.80722
1563815735567123,0.0498336,-0.157908,-1.80726
1563815735595105,0.0501131,-0.158569,-1.80757
1563815735605100,0.0502105,-0.158645,-1.80759
1563815735625088,0.0505084,-0.158866,-1.80766
1563815735647076,0.0507031,-0.159019,-1.8077
1563815735665064,0.0508005,-0.159095,-1.80772
1563815735686052,0.051071,-0.159151,-1.80775
1563815735707040,0.0521541,-0.159975,-1.808
1563815735732026,0.0532245,-0.16063,-1.80839
1563815735745027,0.0543317,-0.161456,-1.809
1563815735767065,0.0551804,-0.162208,-1.80963
1563815735792013,0.055941,-0.162888,-1.8104
1563815735811984,0.0566415,-0.163661,-1.81137
1563815735826971,0.0572452,-0.164358,-1.81233
1563815735844961,0.0577892,-0.165148,-1.81348
1563815735864973,0.0582064,-0.165868,-1.81423
1563815735886943,0.0586937,-0.1665,-1.81495
1563815735912935,0.0591439,-0.166962,-1.81546
1563815735924976,0.0592418,-0.167038,-1.81548
1563815735946903,0.0592418,-0.167038,-1.81548
1563815735964925,0.0593456,-0.167105,-1.81552
1563815735985882,0.0594661,-0.167354,-1.81556
1563815736006869,0.059564,-0.16743,-1.81558
1563815736024860,0.059662,-0.167506,-1.8156
1563815736045846,0.0597599,-0.167583,-1.81562
1563815736069835,0.0596905,-0.16767,-1.81564
1563815736084822,0.0595551,-0.167861,-1.81584
1563815736105820,0.059653,-0.167937,-1.81586
1563815736126859,0.059653,-0.167937,-1.81586
1563815736149788,0.059751,-0.168013,-1.81588
1563815736165778,0.0599469,-0.168165,-1.81592
1563815736188765,0.0600222,-0.168068,-1.81592
1563815736204756,0.0601201,-0.168145,-1.81594
1563815736225744,0.0607075,-0.168165,-1.81562
1563815736246732,0.0613626,-0.167912,-1.81548
1563815736264722,0.0614606,-0.167988,-1.8155
1563815736287709,0.0612647,-0.167836,-1.81546
1563815736306705,0.060965,-0.167617,-1.81537
1563815736324688,0.0610536,-0.167687,-1.81522
1563815736347674,0.0611515,-0.167763,-1.81524
1563815736366669,0.0612495,-0.167839,-1.81526
1563815736384653,0.0613474,-0.167915,-1.81528
1563815736429635,0.0614454,-0.167992,-1.8153
1563815736431631,0.0614454,-0.167992,-1.8153
1563815736444619,0.0616413,-0.168144,-1.81534
1563815736467606,0.0621597,-0.168689,-1.81549
1563815736487598,0.0623615,-0.168831,-1.81555
1563815736512581,0.0623615,-0.168831,-1.81555
1563815736526574,0.0624595,-0.168908,-1.81557
1563815736547557,0.0625575,-0.168984,-1.81559
1563815736564570,0.0625575,-0.168984,-1.81559
1563815736586540,0.063084,-0.169348,-1.8161
1563815736607548,0.0633395,-0.169656,-1.81657
1563815736624537,0.0636046,-0.169971,-1.81721
1563815736654496,0.0637682,-0.170194,-1.81769
1563815736661501,0.063693,-0.17054,-1.81832
1563815736684479,0.0639261,-0.170675,-1.81877
1563815736706466,0.0643481,-0.170786,-1.81943
1563815736721462,0.0647411,-0.170732,-1.82005
1563815736743507,0.064807,-0.170879,-1.82051
1563815736766436,0.0644915,-0.170914,-1.82086
1563815736781425,0.0645438,-0.170893,-1.82146
1563815736804411,0.0649135,-0.170666,-1.82206
1563815736826399,0.0651391,-0.170623,-1.82268
1563815736847446,0.0651893,-0.170416,-1.82348
1563815736864385,0.0658289,-0.170305,-1.82494
1563815736886365,0.0678386,-0.169915,-1.82752
1563815736907353,0.0710088,-0.166994,-1.83013
1563815736923342,0.0758891,-0.16136,-1.83474
1563815736954328,0.0843686,-0.153173,-1.84295
1563815736968317,0.0988403,-0.139382,-1.85284
1563815736984307,0.119519,-0.118122,-1.86165
1563815737006297,0.14632,-0.0941252,-1.86975
1563815737027287,0.177515,-0.0726626,-1.88165
1563815737044277,0.206305,-0.0563878,-1.90034
1563815737066259,0.229811,-0.0440104,-1.92313
1563815737087256,0.249493,-0.0355657,-1.9495
1563815737104244,0.269091,-0.0292298,-1.97939
1563815737126247,0.28856,-0.0223009,-2.01112
1563815737148232,0.30328,-0.0163528,-2.04129
1563815737164203,0.309464,-0.011142,-2.07138
1563815737186192,0.306924,-0.00275329,-2.10074
1563815737208179,0.300637,0.00387428,-2.12834
1563815737230165,0.295594,0.00844445,-2.15573
1563815737247163,0.292819,0.0126966,-2.18062
1563815737269144,0.290487,0.0160161,-2.20127
1563815737283136,0.285658,0.0182067,-2.21625
1563815737313119,0.278061,0.0193876,-2.2276
1563815737329120,0.270273,0.0191535,-2.23646
1563815737343100,0.264833,0.017527,-2.24374
1563815737367093,0.261802,0.0152756,-2.25002
1563815737398070,0.260006,0.0129712,-2.25412
1563815737404070,0.258673,0.010477,-2.25633
1563815737428055,0.256732,0.00821073,-2.25699
1563815737457037,0.25403,0.00585497,-2.25625
1563815737463097,0.251131,0.00266275,-2.25462
1563815737487020,0.247958,0.00119783,-2.25261
1563815737509008,0.245452,-0.000660747,-2.24995
1563815737522998,0.244877,-0.00593425,-2.247
1563815737546985,0.245121,-0.00815868,-2.24327
1563815737570980,0.246417,-0.0133077,-2.23878
1563815737583963,0.24627,-0.016536,-2.23544
1563815737606949,0.244405,-0.0206789,-2.23226
1563815737628937,0.242483,-0.0251628,-2.2294
1563815737643940,0.241936,-0.0287756,-2.22692
1563815737673911,0.243575,-0.0320911,-2.2245
1563815737688907,0.246073,-0.0344783,-2.222
1563815737709920,0.247634,-0.0365568,-2.21943
1563815737732877,0.248186,-0.0381652,-2.21662
1563815737748868,0.248086,-0.0394728,-2.2137
1563815737769859,0.248029,-0.0406431,-2.2109
1563815737786846,0.248137,-0.04176,-2.20813
1563815737808833,0.248143,-0.0427548,-2.20587
1563815737829851,0.247883,-0.0436946,-2.20406
1563815737846812,0.247841,-0.0447297,-2.20235
1563815737869807,0.248251,-0.0456809,-2.20096
1563815737889789,0.248162,-0.0459433,-2.19969
1563815737906778,0.247869,-0.0460567,-2.19879
1563815737928764,0.247477,-0.0455048,-2.19832
1563815737951752,0.246769,-0.0444773,-2.19817
1563815737966746,0.246169,-0.0432195,-2.19806
1563815737988733,0.245616,-0.042638,-2.19819
1563815738009749,0.245356,-0.042326,-2.19853
1563815738026708,0.245367,-0.041988,-2.19903
1563815738048697,0.245423,-0.0418802,-2.19902
1563815738070683,0.24559,-0.0418276,-2.19903
1563815738092672,0.24559,-0.0418276,-2.19903
1563815738109661,0.245682,-0.0422401,-2.19835
1563815738130649,0.24561,-0.0427195,-2.19759
1563815738146641,0.245649,-0.0429833,-2.19681
1563815738169630,0.246178,-0.0430947,-2.19593
1563815738190618,0.246823,-0.0429575,-2.1953
1563815738205609,0.247194,-0.0428319,-2.19457
1563815738229592,0.246964,-0.0430738,-2.19397
1563815738251587,0.246507,-0.0431897,-2.19339
1563815738266572,0.246226,-0.0435053,-2.19306
1563815738289560,0.246282,-0.0433976,-2.19305
1563815738311550,0.246338,-0.0432899,-2.19304
1563815738326538,0.246104,-0.0432458,-2.19247
1563815738349525,0.246481,-0.0430868,-2.19201
1563815738371513,0.246757,-0.0425822,-2.1917
1563815738392504,0.246806,-0.0419516,-2.19141
1563815738409490,0.247158,-0.0412528,-2.19183
1563815738431479,0.248004,-0.0405913,-2.19279
1563815738446470,0.249527,-0.0394155,-2.19402
1563815738469466,0.251673,-0.0376502,-2.19681
1563815738492442,0.252741,-0.0347208,-2.20007
1563815738512452,0.251707,-0.0302399,-2.20282
1563815738529426,0.250621,-0.0256025,-2.20761
1563815738551409,0.249429,-0.0211622,-2.21279
1563815738572396,0.246929,-0.0145822,-2.21786
1563815738589386,0.24109,-0.00454185,-2.2245
1563815738619372,0.230447,0.00183121,-2.22588
1563815738632365,0.217582,0.00884693,-2.21943
1563815738649356,0.217945,0.0103375,-2.21195
1563815738673342,0.236471,0.00895756,-2.21016
1563815738693350,0.253613,0.00795616,-2.21151
1563815738709318,0.252953,0.00716253,-2.21354
1563815738731312,0.242487,0.00583124,-2.21613
1563815738752294,0.238074,0.00551329,-2.22039
1563815738769284,0.241091,0.0050969,-2.22368
1563815738791270,0.242739,0.00512444,-2.22382
1563815738814257,0.240457,0.00142227,-2.22247
1563815738829251,0.236715,0.00188851,-2.22236
1563815738851235,0.234073,0.00158448,-2.22264
1563815738873231,0.232868,0.0012928,-2.22209
1563815738897211,0.232916,0.0017026,-2.21991
1563815738911207,0.232699,0.0026604,-2.21778
1563815738933218,0.232972,0.00332824,-2.21642
1563815738949185,0.233969,0.00330078,-2.21575
1563815738972169,0.234682,0.00216887,-2.21499
1563815738995155,0.233754,0.000286907,-2.21492
1563815739009156,0.231769,-0.00172632,-2.21505
1563815739032133,0.230181,-0.00350405,-2.21539
1563815739060138,0.230066,-0.00506413,-2.21563
1563815739076112,0.231058,-0.00633976,-2.21601
1563815739092102,0.232171,-0.00761884,-2.21688
1563815739112090,0.232721,-0.00891653,-2.2175
1563815739136078,0.233107,-0.00980249,-2.21744
1563815739152064,0.233274,-0.010625,-2.217
1563815739174052,0.233607,-0.0113933,-2.21658
1563815739189043,0.234208,-0.0121355,-2.21631
1563815739212030,0.234703,-0.013108,-2.216
1563815739234021,0.234318,-0.013944,-2.21544
1563815739249009,0.233588,-0.0149387,-2.2144
1563815739271997,0.232762,-0.0161121,-2.21377
1563815739293983,0.232375,-0.0169472,-2.21322
1563815739308976,0.232157,-0.0174255,-2.21292
1563815739338960,0.232363,-0.0178742,-2.21231
1563815739353949,0.232085,-0.0182211,-2.2117
1563815739368947,0.231648,-0.0183321,-2.21127
1563815739398927,0.23136,-0.0183813,-2.21076
1563815739413916,0.231578,-0.0185535,-2.21026
1563815739428905,0.231687,-0.0186396,-2.21
1563815739451897,0.231578,-0.0189008,-2.20969
1563815739473879,0.231187,-0.0194191,-2.20944
1563815739488871,0.230744,-0.0200587,-2.20913
1563815739511857,0.230471,-0.0206132,-2.2091
1563815739534844,0.230242,-0.0213357,-2.20896
1563815739548840,0.230298,-0.0217699,-2.20902
1563815739578822,0.230629,-0.0222365,-2.20884
1563815739579819,0.230741,-0.0228336,-2.20893
1563815739600813,0.231008,-0.0233821,-2.20888
1563815739617796,0.231056,-0.0238345,-2.20874
1563815739636808,0.231173,-0.0241736,-2.20872
1563815739659775,0.23134,-0.0246625,-2.2088
1563815739675763,0.231177,-0.0249557,-2.2091
1563815739713745,0.231018,-0.0252623,-2.20933
1563815739727755,0.230847,-0.0255739,-2.20941
1563815739743724,0.230355,-0.0259877,-2.20962
1563815739756718,0.229919,-0.0265647,-2.20986
1563815739779705,0.229423,-0.0269655,-2.21013
1563815739795694,0.22921,-0.027652,-2.2104
1563815739816683,0.228941,-0.0281755,-2.21065
1563815739842670,0.228674,-0.0289705,-2.21093
1563815739855660,0.228291,-0.029742,-2.21092
1563815739876646,0.227794,-0.0307169,-2.21099
1563815739899639,0.227524,-0.0318144,-2.21103
1563815739916626,0.227306,-0.0330617,-2.21117
1563815739936613,0.227303,-0.034436,-2.21113
1563815739959603,0.227468,-0.036028,-2.21115
1563815739990583,0.227407,-0.0377685,-2.21122
1563815740004594,0.22704,-0.0396082,-2.21156
1563815740022564,0.226545,-0.041384,-2.21181
1563815740035560,0.226386,-0.043324,-2.21211
1563815740056544,0.22657,-0.0451392,-2.21264
1563815740079573,0.226643,-0.0466285,-2.21312
1563815740097522,0.226485,-0.0482973,-2.21339
1563815740119516,0.226277,-0.0498305,-2.2135
1563815740139527,0.225893,-0.0508472,-2.21366
1563815740157487,0.225576,-0.0517522,-2.21395
1563815740184472,0.22531,-0.0522636,-2.21426
1563815740199463,0.224987,-0.0523543,-2.21444
1563815740217452,0.224607,-0.0522819,-2.2146
1563815740253432,0.224266,-0.0518329,-2.21457
1563815740259485,0.224219,-0.051395,-2.21464
1563815740285419,0.224048,-0.0509058,-2.21456
1563815740300424,0.223436,-0.0504833,-2.21437
1563815740319452,0.22278,-0.0504238,-2.21443
1563815740337383,0.222281,-0.0505854,-2.21439
1563815740357414,0.222226,-0.0506939,-2.2144
1563815740379393,0.22224,-0.0514782,-2.21478
1563815740397357,0.221927,-0.0526555,-2.2151
1563815740417338,0.22122,-0.0540794,-2.21515
1563815740447322,0.220723,-0.0556157,-2.21508
1563815740465310,0.220892,-0.0571945,-2.21517
1563815740477304,0.221288,-0.0586382,-2.21514
1563815740499296,0.221392,-0.0598261,-2.21483
1563815740517281,0.221431,-0.0608811,-2.21422
1563815740537271,0.221355,-0.0616098,-2.21355
1563815740561255,0.221622,-0.0622147,-2.21312
1563815740577246,0.221985,-0.0626055,-2.21252
1563815740600235,0.221859,-0.0628829,-2.212
1563815740639212,0.221681,-0.0632824,-2.21142
1563815740643228,0.221681,-0.0632824,-2.21142
1563815740657206,0.221681,-0.0632824,-2.21142
1563815740681186,0.221681,-0.0632824,-2.21142
1563815740697177,0.221956,-0.0638575,-2.21125
1563815740726162,0.222051,-0.0644887,-2.21094
1563815740735156,0.222159,-0.0653751,-2.21087
1563815740757144,0.22216,-0.0664923,-2.21074
1563815740778131,0.222328,-0.0680717,-2.21084
1563815740795124,0.222669,-0.0698835,-2.21093
1563815740817107,0.222843,-0.0717488,-2.211
1563815740847090,0.223073,-0.0737636,-2.21117
1563815740855087,0.223071,-0.0759566,-2.21113
1563815740877074,0.22313,-0.0783416,-2.211
1563815740898062,0.223902,-0.0809362,-2.21091
1563815740915052,0.225057,-0.0838907,-2.21066
1563815740937039,0.225723,-0.0867177,-2.21053
1563815740960026,0.226266,-0.0897634,-2.21029
1563815740975019,0.226827,-0.0930654,-2.21031
1563815740997006,0.227914,-0.0969936,-2.21077
1563815741017994,0.229403,-0.101478,-2.21158
1563815741040020,0.231251,-0.106915,-2.21274
1563815741063015,0.233185,-0.1133,-2.21422
1563815741078966,0.235623,-0.120659,-2.21638
1563815741100947,0.238971,-0.12959,-2.21925
1563815741117937,0.243485,-0.140185,-2.22301
1563815741138924,0.247401,-0.151874,-2.22815
1563815741153928,0.24931,-0.164795,-2.2352
1563815741176902,0.249189,-0.179757,-2.24424
1563815741198890,0.248583,-0.196871,-2.25561
1563815741213884,0.248156,-0.216799,-2.26957
1563815741236868,0.247161,-0.238489,-2.28599
1563815741258855,0.24552,-0.260964,-2.30335
1563815741279844,0.244069,-0.284539,-2.32116
1563815741296833,0.243057,-0.309127,-2.33969
1563815741318824,0.242315,-0.333626,-2.35788
1563815741341808,0.24162,-0.356392,-2.37437
1563815741356803,0.240767,-0.378085,-2.38946
1563815741378786,0.240652,-0.399136,-2.4035
1563815741401774,0.240957,-0.418976,-2.41612
1563815741416768,0.241561,-0.437058,-2.42746
1563815741439751,0.241808,-0.45327,-2.43792
1563815741467736,0.240918,-0.468006,-2.44801
1563815741476732,0.238717,-0.481171,-2.45754
1563815741498722,0.234945,-0.493241,-2.46686
1563815741519714,0.229454,-0.504931,-2.4758
1563815741536695,0.221967,-0.515751,-2.48431
1563815741559684,0.213444,-0.526272,-2.49271
1563815741579681,0.205461,-0.536553,-2.50033
1563815741596662,0.197771,-0.544536,-2.5054
1563815741619654,0.190999,-0.550794,-2.50756
1563815741640640,0.185756,-0.55594,-2.50695
1563815741656626,0.183072,-0.559689,-2.50465
1563815741679616,0.183251,-0.56316,-2.50214
1563815741700605,0.184937,-0.567554,-2.49974
1563815741716596,0.185875,-0.572914,-2.49774
1563815741739580,0.184386,-0.577926,-2.49593
1563815741760569,0.180915,-0.582683,-2.49409
1563815741784554,0.176771,-0.587392,-2.49229
1563815741799546,0.174176,-0.592338,-2.49097
1563815741820555,0.173019,-0.597714,-2.48994
1563815741837548,0.172543,-0.603022,-2.48883
1563815741859510,0.171849,-0.607763,-2.48732
1563815741880522,0.171486,-0.611739,-2.48614
1563815741896492,0.171557,-0.614916,-2.48512
1563815741925473,0.171924,-0.617046,-2.48446
1563815741941464,0.172695,-0.618595,-2.48361
1563815741956459,0.174059,-0.619415,-2.48259
1563815741979444,0.175459,-0.620393,-2.48093
1563815742001430,0.176795,-0.621364,-2.47905
1563815742016420,0.178163,-0.62279,-2.47729
1563815742039411,0.178833,-0.624182,-2.47547
1563815742061395,0.178959,-0.625599,-2.47417
1563815742076386,0.178273,-0.627073,-2.47298
1563815742099375,0.177725,-0.628398,-2.47211
1563815742121362,0.177638,-0.629357,-2.47101
1563815742136353,0.178459,-0.62973,-2.47
1563815742159340,0.180022,-0.630227,-2.4693
1563815742181325,0.180801,-0.630125,-2.46856
1563815742196318,0.180582,-0.629637,-2.46776
1563815742219310,0.179894,-0.629303,-2.46693
1563815742241294,0.180042,-0.629476,-2.46623
1563815742256283,0.181259,-0.630059,-2.46631
1563815742279269,0.182583,-0.630226,-2.46723
1563815742302268,0.183805,-0.630691,-2.46999
1563815742316253,0.183236,-0.631444,-2.47446
1563815742339239,0.177491,-0.63167,-2.47762
1563815742369227,0.167865,-0.628819,-2.48013
1563815742382210,0.157289,-0.625273,-2.48139
1563815742399202,0.146465,-0.621047,-2.47687
1563815742421192,0.135027,-0.62129,-2.46732
1563815742442198,0.133877,-0.611566,-2.46411
1563815742459167,0.137407,-0.603058,-2.46318
1563815742481167,0.147072,-0.603763,-2.46474
1563815742503146,0.151013,-0.60908,-2.46739
1563815742519140,0.146201,-0.614902,-2.46781
1563815742542120,0.141654,-0.618552,-2.46764
1563815742564107,0.1419,-0.619245,-2.46878
1563815742579098,0.144044,-0.617577,-2.47045
1563815742602092,0.144462,-0.6157,-2.47118
1563815742623076,0.143933,-0.614335,-2.47158
1563815742639068,0.143755,-0.61431,-2.47142
1563815742669064,0.144396,-0.616373,-2.47031
1563815742683060,0.145845,-0.618398,-2.46957
1563815742699051,0.14617,-0.619896,-2.46863
1563815742722016,0.14589,-0.620919,-2.46836
1563815742743074,0.145398,-0.622377,-2.46831
1563815742761040,0.14526,-0.624491,-2.46834
1563815742782028,0.146055,-0.627097,-2.46881
1563815742803039,0.14759,-0.629411,-2.46958
1563815742819015,0.148873,-0.631145,-2.47024
1563815742842016,0.149711,-0.63371,-2.47124
1563815742871979,0.150202,-0.63625,-2.4724
1563815742878974,0.150645,-0.635533,-2.47399
1563815742901971,0.151184,-0.638353,-2.47514
1563815742922969,0.150906,-0.636737,-2.47747
1563815742938944,0.149212,-0.636836,-2.47788
1563815742961947,0.148873,-0.637552,-2.47842
1563815742983912,0.14907,-0.638926,-2.47871
1563815742998904,0.149364,-0.639963,-2.47897
1563815743021892,0.149468,-0.640149,-2.47905
1563815743043878,0.149468,-0.640149,-2.47905
1563815743058873,0.149625,-0.640741,-2.47884
1563815743088855,0.150351,-0.641643,-2.47902
1563815743103850,0.150967,-0.642647,-2.47938
1563815743118837,0.151446,-0.64371,-2.47981
1563815743141824,0.151831,-0.645112,-2.48028
1563815743163810,0.152164,-0.646521,-2.48103
1563815743178802,0.152672,-0.647828,-2.48223
1563815743201789,0.153341,-0.648798,-2.48492
1563815743223775,0.152254,-0.649373,-2.48687
1563815743238766,0.149694,-0.649667,-2.4869
1563815743261756,0.147065,-0.649344,-2.48565
1563815743291736,0.146949,-0.649337,-2.48571
1563815743305727,0.147635,-0.649451,-2.48538
1563815743321720,0.148625,-0.649691,-2.48571
1563815743343705,0.147542,-0.648867,-2.48712
1563815743364694,0.141866,-0.646749,-2.48967
1563815743387681,0.130716,-0.643517,-2.49242
1563815743403671,0.114917,-0.639747,-2.49496
1563815743425660,0.0946137,-0.63463,-2.49597
1563815743448661,0.0697769,-0.623564,-2.49348
1563815743463667,0.0396898,-0.60204,-2.4872
1563815743485632,0.0024341,-0.573129,-2.48059
1563815743501623,-0.045126,-0.544473,-2.47617
1563815743523634,-0.110065,-0.509483,-2.47195
1563815743545600,-0.186811,-0.467584,-2.46649
1563815743561587,-0.269784,-0.418786,-2.45779
1563815743584570,-0.35574,-0.364823,-2.44549
1563815743612555,-0.440816,-0.305881,-2.42941
1563815743621547,-0.522946,-0.242791,-2.41161
1563815743644535,-0.602379,-0.17588,-2.39161
1563815743665541,-0.678262,-0.103252,-2.36999
1563815743687509,-0.74681,-0.0250211,-2.34785
1563815743704516,-0.805126,0.0576541,-2.32757
1563815743726487,-0.851603,0.143545,-2.30988
1563815743741499,-0.889701,0.230398,-2.297
1563815743764487,-0.923375,0.317043,-2.28814
1563815743785455,-0.957274,0.402175,-2.28313
1563815743802457,-0.995547,0.484115,-2.28217
1563815743824431,-1.03802,0.566164,-2.28435
1563815743845439,-1.08273,0.646819,-2.28878
1563815743868405,-1.1253,0.72476,-2.29488
1563815743884398,-1.16093,0.79773,-2.29884
1563815743914380,-1.18952,0.865527,-2.29963
1563815743927392,-1.21718,0.930234,-2.29958
1563815743944383,-1.24823,0.992845,-2.29844
1563815743968355,-1.28372,1.0522,-2.298
1563815743981342,-1.31942,1.10578,-2.30014
1563815744010326,-1.35452,1.15221,-2.30502
1563815744026315,-1.38665,1.19277,-2.30526
1563815744041328,-1.4195,1.23058,-2.30601
1563815744064293,-1.45144,1.26694,-2.31279
1563815744086282,-1.49664,1.30189,-2.3417
1563815744092296,-1.53995,1.3327,-2.37654
1563815744108267,-1.58512,1.36217,-2.41612
1563815744129255,-1.62281,1.39138,-2.44257
1563815744152244,-1.63998,1.41838,-2.44049
1563815744193222,-1.63257,1.44361,-2.41112
1563815744197218,-1.58992,1.4664,-2.35217
1563815744229219,-1.47418,1.48905,-2.22734
1563815744231196,-1.21149,1.50805,-1.96083
1563815744249207,-0.721173,1.52061,-1.4689
1563815744289185,-0.124714,1.51495,-0.873926
1563815744291164,0.277634,1.49725,-0.478844
1563815744309156,0.513068,1.47254,-0.252735
1563815744335143,0.646122,1.44505,-0.129686
1563815744348132,0.730228,1.41706,-0.0559931
1563815744369119,0.788027,1.39262,-0.00817608
1563815744393105,0.823745,1.37082,0.0206429
1563815744414097,0.840968,1.35031,0.0368695
1563815744446074,0.841635,1.3311,0.0422559
1563815744452076,0.832006,1.31569,0.0401474
1563815744468071,0.817594,1.30324,0.0337978
1563815744489051,0.80147,1.29098,0.0254678
1563815744512055,0.785462,1.28036,0.0166005
1563815744528057,0.769078,1.2712,0.00580046
1563815744550015,0.754278,1.26387,-0.00621119
1563815744572034,0.740322,1.25871,-0.0189344
1563815744588024,0.725331,1.25442,-0.032227
1563815744609980,0.705844,1.25276,-0.0480792
1563815744639962,0.679526,1.25397,-0.0696865
1563815744647959,0.647604,1.25583,-0.0959337
1563815744670946,0.609495,1.25585,-0.127294
1563815744691933,0.563052,1.25439,-0.164524
1563815744707923,0.509928,1.25141,-0.207315
1563815744729913,0.455031,1.24717,-0.254235
1563815744751933,0.402135,1.24032,-0.302361
1563815744768893,0.352917,1.23109,-0.34832
1563815744789908,0.307653,1.22012,-0.390867
1563815744813864,0.26667,1.21054,-0.431203
1563815744829855,0.229469,1.20356,-0.470279
1563815744852840,0.194632,1.19921,-0.508179
1563815744871853,0.155725,1.19758,-0.548777
1563815744890818,0.10657,1.19831,-0.595895
1563815744909812,0.0464613,1.19953,-0.649183
1563815744931818,-0.0265786,1.19968,-0.709779
1563815744950797,-0.111485,1.19683,-0.776189
1563815744976771,-0.2033,1.18823,-0.843052
1563815744992761,-0.299315,1.17403,-0.910084
1563815745023741,-0.39296,1.15644,-0.978187
1563815745029739,-0.476233,1.13589,-1.04203
1563815745051734,-0.548417,1.11386,-1.09897
1563815745069717,-0.61157,1.09063,-1.14948
1563815745096724,-0.664568,1.0653,-1.19232
1563815745111716,-0.709067,1.0377,-1.22806
1563815745129682,-0.743029,1.00663,-1.25611
1563815745149694,-0.760938,0.971497,-1.27548
1563815745171681,-0.762304,0.931806,-1.28877
1563815745190647,-0.747331,0.888521,-1.29814
1563815745209635,-0.720119,0.84394,-1.30696
1563815745231646,-0.691773,0.800341,-1.31711
1563815745249613,-0.656734,0.752883,-1.32476
1563815745276621,-0.608615,0.699883,-1.33027
1563815745287592,-0.549195,0.643186,-1.33646
1563815745309582,-0.494773,0.57679,-1.3494
1563815745336566,-0.445193,0.502973,-1.36016
1563815745352556,-0.397241,0.426173,-1.36561
1563815745369543,-0.348901,0.346654,-1.36879
1563815745389539,-0.299136,0.262851,-1.37573
1563815745407525,-0.248678,0.176119,-1.38578
1563815745430510,-0.201152,0.0939247,-1.3949
1563815745451499,-0.1606,0.0175839,-1.4055
1563815745467492,-0.124387,-0.05175,-1.41864
1563815745490475,-0.0904347,-0.11052,-1.42965
1563815745511462,-0.0586676,-0.162008,-1.43747
1563815745532476,-0.0292176,-0.208474,-1.44389
1563815745556436,-0.00291635,-0.249351,-1.45039
1563815745570429,0.0159046,-0.282781,-1.45506
1563815745586423,0.0312961,-0.311202,-1.45966
1563815745617402,0.0440176,-0.339731,-1.46553
1563815745630416,0.0537515,-0.370115,-1.47329
1563815745647390,0.0610723,-0.40238,-1.48238
1563815745685363,0.0670448,-0.434237,-1.4905
1563815745690361,0.0733576,-0.46227,-1.4944
1563815745706354,0.0813548,-0.487272,-1.49479
1563815745729339,0.0919752,-0.510323,-1.49508
1563815745750331,0.102659,-0.532285,-1.49457
1563815745780333,0.110691,-0.551958,-1.4916
1563815745790302,0.117072,-0.569167,-1.48607
1563815745811290,0.123106,-0.585271,-1.48032
1563815745834278,0.127492,-0.599489,-1.47576
1563815745849270,0.129205,-0.611931,-1.47213
1563815745871256,0.130025,-0.62191,-1.46961
1563815745886248,0.132611,-0.629819,-1.46877
1563815745909235,0.137547,-0.637424,-1.4703
1563815745932222,0.141944,-0.644792,-1.47315
1563815745946232,0.143686,-0.651683,-1.47723
1563815745983195,0.142482,-0.657736,-1.4814
1563815746006208,0.140331,-0.662153,-1.48478
1563815746009207,0.139798,-0.66519,-1.48709
1563815746029165,0.14198,-0.667271,-1.48962
1563815746058151,0.144404,-0.669046,-1.49266
1563815746066144,0.143731,-0.670598,-1.49558
1563815746089132,0.140179,-0.672115,-1.49783
1563815746111119,0.136173,-0.674112,-1.49958
1563815746126112,0.134228,-0.676563,-1.50199
1563815746149099,0.134425,-0.679787,-1.50524
1563815746171090,0.135705,-0.683323,-1.50923
1563815746186075,0.136605,-0.687335,-1.51363
1563815746209065,0.135954,-0.691591,-1.51751
1563815746231050,0.134317,-0.69551,-1.52068
1563815746246040,0.134033,-0.699139,-1.52343
1563815746276030,0.135932,-0.702593,-1.52634
1563815746291014,0.139307,-0.705778,-1.52996
1563815746313002,0.14203,-0.708672,-1.53356
1563815746328992,0.143279,-0.711067,-1.53634
1563815746351980,0.144827,-0.713083,-1.53873
1563815746372967,0.147349,-0.714698,-1.54104
1563815746389989,0.150357,-0.716159,-1.54314
1563815746411946,0.152783,-0.717026,-1.54458
1563815746432942,0.154898,-0.717851,-1.54603
1563815746448932,0.156228,-0.718623,-1.54731
1563815746471914,0.157026,-0.719479,-1.54839
1563815746491901,0.158043,-0.720344,-1.54957
1563815746508894,0.159445,-0.721494,-1.55104
1563815746531879,0.162127,-0.722899,-1.55373
1563815746552866,0.165587,-0.723981,-1.55736
1563815746568859,0.168284,-0.725553,-1.5632
1563815746591844,0.167884,-0.728125,-1.56973
1563815746612853,0.164817,-0.729457,-1.57344
1563815746628826,0.161799,-0.73082,-1.57666
1563815746651817,0.158968,-0.732063,-1.5783
1563815746672818,0.153246,-0.734396,-1.57533
1563815746696787,0.147725,-0.739891,-1.57045
1563815746711775,0.151551,-0.736111,-1.56706
1563815746736760,0.169773,-0.73446,-1.57094
1563815746749755,0.185135,-0.733832,-1.57643
1563815746778735,0.182132,-0.732376,-1.57437
1563815746794732,0.176507,-0.731111,-1.57068
1563815746808719,0.176796,-0.731192,-1.56942
1563815746831715,0.180163,-0.731118,-1.57074
1563815746859712,0.179809,-0.731921,-1.5722
1563815746868684,0.177534,-0.732822,-1.57463
1563815746891686,0.176432,-0.734965,-1.57546
1563815746913658,0.177631,-0.735561,-1.57576
1563815746928655,0.178906,-0.736287,-1.57595
1563815746951641,0.179181,-0.736459,-1.57616
1563815746974626,0.180122,-0.737608,-1.5773
1563815746988618,0.181358,-0.738962,-1.57886
1563815747011606,0.183118,-0.741115,-1.58085
1563815747034592,0.184559,-0.743064,-1.58244
1563815747055577,0.185707,-0.745159,-1.58361
1563815747071576,0.186674,-0.747249,-1.58469
1563815747094556,0.187894,-0.749161,-1.58598
1563815747108548,0.188708,-0.751009,-1.58707
1563815747131537,0.189443,-0.752864,-1.58848
1563815747154520,0.189848,-0.75449,-1.59054
1563815747168511,0.190538,-0.756092,-1.59346
1563815747191499,0.19023,-0.756617,-1.59775
1563815747220485,0.187168,-0.756876,-1.60152
1563815747235475,0.180725,-0.757627,-1.60211
1563815747251470,0.176185,-0.758976,-1.60153
1563815747274473,0.174743,-0.760285,-1.59983
1563815747295443,0.17622,-0.761081,-1.598
1563815747311430,0.179316,-0.762168,-1.59779
1563815747335416,0.182055,-0.763666,-1.59836
1563815747355406,0.182252,-0.765113,-1.59862
1563815747372416,0.1801,-0.766673,-1.59779
1563815747394383,0.177514,-0.768045,-1.59631
1563815747423395,0.17591,-0.768796,-1.59481
1563815747448381,0.176012,-0.76942,-1.59407
1563815747454348,0.176753,-0.76993,-1.59376
1563815747475366,0.176961,-0.77044,-1.59355
1563815747491326,0.175953,-0.770942,-1.59259
1563815747514314,0.175044,-0.771335,-1.59162
1563815747535301,0.17527,-0.772076,-1.59099
1563815747551300,0.17656,-0.772899,-1.59091
1563815747574281,0.177914,-0.773483,-1.59093
1563815747595270,0.178111,-0.774225,-1.59031
1563815747611260,0.177803,-0.774968,-1.58978
1563815747634244,0.177831,-0.775519,-1.58915
1563815747655238,0.178003,-0.775818,-1.5883
1563815747671222,0.178456,-0.776159,-1.58777
1563815747694211,0.178828,-0.776512,-1.58756
1563815747732189,0.178989,-0.776572,-1.58768
1563815747734194,0.178989,-0.776572,-1.58768
1563815747754189,0.179016,-0.776795,-1.58779
1563815747784162,0.178961,-0.776759,-1.58758
1563815747791185,0.179088,-0.776873,-1.58769
1563815747814141,0.179123,-0.776818,-1.58769
1563815747837128,0.17915,-0.777041,-1.5878
1563815747851133,0.17915,-0.777041,-1.5878
1563815747874116,0.179276,-0.777156,-1.58791
1563815747897094,0.179312,-0.777101,-1.58791
1563815747911093,0.179438,-0.777215,-1.58803
1563815747942071,0.179565,-0.77733,-1.58814
1563815747957061,0.179565,-0.77733,-1.58814
1563815747980048,0.179691,-0.777445,-1.58825
1563815747994039,0.179727,-0.77739,-1.58825
1563815748017028,0.179727,-0.77739,-1.58825
1563815748031017,0.179799,-0.777468,-1.58815
1563815748055005,0.179699,-0.777577,-1.58815
1563815748076991,0.179826,-0.777692,-1.58826
1563815748090985,0.179826,-0.777692,-1.58826
1563815748113971,0.179988,-0.777751,-1.58837
1563815748136958,0.179988,-0.777751,-1.58837
1563815748150950,0.180014,-0.777974,-1.58849
1563815748173942,0.180014,-0.777974,-1.58849
1563815748203925,0.180086,-0.778053,-1.58838
1563815748218912,0.180122,-0.777997,-1.58838
1563815748233922,0.180149,-0.778221,-1.5885
1563815748256892,0.180275,-0.778336,-1.58861
1563815748278876,0.180275,-0.778336,-1.58861
1563815748293886,0.180438,-0.778395,-1.58872
1563815748316855,0.180283,-0.778467,-1.58851
1563815748337844,0.18041,-0.778582,-1.58862
1563815748353840,0.18041,-0.778582,-1.58862
1563815748376820,0.180537,-0.778697,-1.58873
1563815748397810,0.180437,-0.778806,-1.58873
1563815748413816,0.180472,-0.77875,-1.58873
1563815748436785,0.180599,-0.778865,-1.58885
1563815748458780,0.180726,-0.77898,-1.58896
1563815748473775,0.180726,-0.77898,-1.58896
1563815748496759,0.180853,-0.779095,-1.58907
1563815748517799,0.180889,-0.779039,-1.58907
1563815748533736,0.180961,-0.779118,-1.58897
1563815748556718,0.180861,-0.779227,-1.58897
1563815748577747,0.180988,-0.779342,-1.58908
1563815748584701,0.18115,-0.779401,-1.5892
1563815748599693,0.18115,-0.779401,-1.5892
1563815748621712,0.181277,-0.779516,-1.58931
1563815748644674,0.181277,-0.779516,-1.58931
1563815748659697,0.181249,-0.779703,-1.58921
1563815748681665,0.181285,-0.779648,-1.58921
1563815748704670,0.181285,-0.779648,-1.58921
1563815748722622,0.181412,-0.779763,-1.58932
1563815748758633,0.181412,-0.779763,-1.58932
1563815748764635,0.181412,-0.779763,-1.58932
1563815748779589,0.181539,-0.779878,-1.58943
1563815748824571,0.181439,-0.779986,-1.58943
1563815748836557,0.181602,-0.780045,-1.58955
1563815748840554,0.181602,-0.780045,-1.58955
1563815748861541,0.181574,-0.780233,-1.58945
1563815748885531,0.181574,-0.780233,-1.58945
1563815748899519,0.181701,-0.780348,-1.58956
1563815748923506,0.181601,-0.780457,-1.58956
1563815748944556,0.181764,-0.780516,-1.58967
1563815748959546,0.181764,-0.780516,-1.58967
1563815748982472,0.181609,-0.780588,-1.58946
1563815749004460,0.181736,-0.780703,-1.58957
1563815749019478,0.181736,-0.780703,-1.58957
1563815749049433,0.181764,-0.780927,-1.58969
1563815749066428,0.181764,-0.780927,-1.58969
1563815749079416,0.181799,-0.780871,-1.58969
1563815749109399,0.181872,-0.78095,-1.58959
1563815749124399,0.181872,-0.78095,-1.58959
1563815749139424,0.181772,-0.781059,-1.58959
1563815749165370,0.181899,-0.781174,-1.5897
1563815749180360,0.181899,-0.781174,-1.5897
1563815749199349,0.181899,-0.781174,-1.5897
1563815749222367,0.181298,-0.781637,-1.58981
1563815749248321,0.180825,-0.781803,-1.59003
1563815749261330,0.18077,-0.781766,-1.58981
1563815749282307,0.180897,-0.781882,-1.58992
1563815749300290,0.180933,-0.781825,-1.58993
1563815749327278,0.181069,-0.782344,-1.59059
1563815749342273,0.181105,-0.782288,-1.59059
1563815749360263,0.181178,-0.782366,-1.59049
1563815749387256,0.181614,-0.782477,-1.59039
1563815749402232,0.181641,-0.782701,-1.59051
1563815749420222,0.181641,-0.782701,-1.59051
1563815749442210,0.181641,-0.782701,-1.59051
1563815749462199,0.181641,-0.782701,-1.59051
1563815749484184,0.181641,-0.782701,-1.59051
1563815749501174,0.181641,-0.782701,-1.59051
1563815749525174,0.181641,-0.782701,-1.59051
1563815749544154,0.181641,-0.782701,-1.59051
1563815749561142,0.181641,-0.782701,-1.59051
1563815749582164,0.181669,-0.782925,-1.59062
1563815749607128,0.181613,-0.782889,-1.5904
1563815749622107,0.18134,-0.783249,-1.59063
1563815749642095,0.180875,-0.783548,-1.59074
1563815749667081,0.180657,-0.783946,-1.59118
1563815749682071,0.180412,-0.784119,-1.59151
1563815749702099,0.179677,-0.783101,-1.59158
1563815749720051,0.178097,-0.782196,-1.59109
1563815749742044,0.17643,-0.7809,-1.59037
1563815749762027,0.174812,-0.779543,-1.59021
1563815749780016,0.172877,-0.778506,-1.5906
1563815749802003,0.17026,-0.779128,-1.59147
1563815749821992,0.167097,-0.781875,-1.59458
1563815749839983,0.162863,-0.785936,-1.5993
1563815749861971,0.157914,-0.790101,-1.6043
1563815749884955,0.154252,-0.79459,-1.60938
1563815749899947,0.152425,-0.798953,-1.61439
1563815749921939,0.151035,-0.802977,-1.61853
1563815749942922,0.149137,-0.806829,-1.62121
1563815749959915,0.147597,-0.809759,-1.62251
1563815749981922,0.146961,-0.811411,-1.62248
1563815750001888,0.147077,-0.81215,-1.6216
1563815750019877,0.147252,-0.811567,-1.62009
1563815750041867,0.14602,-0.80945,-1.61748
1563815750062854,0.144407,-0.805355,-1.61333
1563815750078859,0.145449,-0.799022,-1.60732
1563815750107861,0.152019,-0.787862,-1.60093
1563815750122857,0.161838,-0.771495,-1.59601
1563815750139815,0.169325,-0.748167,-1.59189
1563815750161855,0.173333,-0.717678,-1.59071
1563815750182788,0.1736,-0.681097,-1.59368
1563815750198775,0.172338,-0.638259,-1.60178
1563815750221771,0.169708,-0.590775,-1.61436
1563815750242758,0.164331,-0.540761,-1.63294
1563815750259742,0.154747,-0.491591,-1.65892
1563815750281729,0.140772,-0.443843,-1.69031
1563815750302716,0.126529,-0.39702,-1.7283
1563815750320705,0.114603,-0.351949,-1.77302
1563815750341694,0.1067,-0.310812,-1.82495
1563815750362683,0.101375,-0.276179,-1.88208
1563815750386670,0.0981591,-0.24866,-1.94338
1563815750401657,0.0964544,-0.230208,-2.00644
1563815750423644,0.0944762,-0.221115,-2.07001
1563815750439636,0.0920579,-0.225414,-2.13343
1563815750461623,0.0905059,-0.239587,-2.19436
1563815750482611,0.0874248,-0.260668,-2.25217
1563815750498602,0.0814569,-0.285409,-2.3062
1563815750527586,0.0736478,-0.312864,-2.35678
1563815750543576,0.0669211,-0.340921,-2.40251
1563815750558575,0.0653514,-0.369071,-2.44279
1563815750581556,0.0705744,-0.401057,-2.47796
1563815750604541,0.0809086,-0.434061,-2.50802
1563815750618535,0.0905842,-0.466844,-2.53234
1563815750641521,0.0962255,-0.497763,-2.55087
1563815750664507,0.0967256,-0.525464,-2.56488
1563815750678502,0.093591,-0.549034,-2.57374
1563815750701485,0.0923335,-0.568903,-2.57911
1563815750724473,0.0953822,-0.585037,-2.58296
1563815750738464,0.100553,-0.598225,-2.5869
1563815750761451,0.103861,-0.608858,-2.59099
1563815750784439,0.103943,-0.617602,-2.59497
1563815750805426,0.101236,-0.625751,-2.59838
1563815750829413,0.0983684,-0.633602,-2.60095
1563815750844405,0.0968219,-0.64022,-2.60237
1563815750865393,0.0975205,-0.645578,-2.60264
1563815750895411,0.0991954,-0.650295,-2.60207
1563815750904370,0.100968,-0.654209,-2.60074
1563815750925356,0.10209,-0.658304,-2.59881
1563815750942347,0.10268,-0.661868,-2.5973
1563815750970331,0.10278,-0.665369,-2.59672
1563815750978327,0.102145,-0.66811,-2.59738
1563815751001314,0.0997047,-0.670505,-2.59923
1563815751024301,0.0940326,-0.671618,-2.60208
1563815751045308,0.0839011,-0.671101,-2.60601
1563815751061279,0.067494,-0.668138,-2.60892
1563815751084266,0.0433774,-0.661638,-2.61115
1563815751105255,0.0112485,-0.650618,-2.61269
1563815751121245,-0.0284412,-0.634945,-2.61113
1563815751144232,-0.06811,-0.618596,-2.6082
1563815751165219,-0.111817,-0.59793,-2.60238
1563815751182213,-0.159984,-0.573686,-2.59293
1563815751204197,-0.214092,-0.545444,-2.58012
1563815751225186,-0.276444,-0.510868,-2.5627
1563815751241175,-0.344323,-0.470702,-2.5407
1563815751270178,-0.412891,-0.42624,-2.51722
1563815751285170,-0.479626,-0.37715,-2.4922
1563815751301142,-0.54393,-0.322931,-2.46682
1563815751330124,-0.605854,-0.26417,-2.44213
1563815751345135,-0.663172,-0.200379,-2.41873
1563815751361106,-0.714103,-0.133438,-2.39769
1563815751384094,-0.758055,-0.0653763,-2.37993
1563815751405087,-0.797737,0.0025999,-2.36603
1563815751421073,-0.837641,0.0699241,-2.35586
1563815751444061,-0.879732,0.136473,-2.34877
1563815751466050,-0.922152,0.202303,-2.34473
1563815751481040,-0.962671,0.268063,-2.34385
1563815751504026,-0.999007,0.333787,-2.3458
1563815751527012,-1.03157,0.397808,-2.35012
1563815751549000,-1.06273,0.459887,-2.35578
1563815751563992,-1.09197,0.521375,-2.36185
1563815751586976,-1.11904,0.581993,-2.36839
1563815751607985,-1.1427,0.641208,-2.37424
1563815751623957,-1.16181,0.698342,-2.38015
1563815751646962,-1.17934,0.752215,-2.3894
1563815751660936,-1.20111,0.800833,-2.4035
1563815751683924,-1.23317,0.844869,-2.42339
1563815751706910,-1.27136,0.881734,-2.44703
1563815751727909,-1.31463,0.912645,-2.47383
1563815751743887,-1.36417,0.939384,-2.50115
1563815751766882,-1.41625,0.962674,-2.52612
1563815751787863,-1.46062,0.983456,-2.54721
1563815751803852,-1.49188,1.00317,-2.56512
1563815751826839,-1.50925,1.02218,-2.579
1563815751847829,-1.51917,1.04097,-2.59083
1563815751863819,-1.52643,1.059,-2.60059
1563815751886806,-1.53518,1.07495,-2.61014
1563815751907798,-1.54359,1.0876,-2.62055
1563815751925784,-1.55099,1.09834,-2.63179
1563815751946772,-1.56016,1.10734,-2.64453
1563815751967759,-1.57169,1.11504,-2.65633
1563815751983749,-1.58575,1.12186,-2.66747
1563815752006737,-1.59944,1.12735,-2.67805
1563815752027725,-1.61165,1.13225,-2.68817
1563815752043715,-1.62247,1.13727,-2.69652
1563815752072699,-1.63224,1.14125,-2.70344
1563815752087690,-1.64161,1.14494,-2.71019
1563815752103687,-1.64944,1.14798,-2.71585
1563815752126668,-1.65601,1.15104,-2.71987
1563815752147668,-1.66105,1.15358,-2.72235
1563815752170643,-1.66474,1.15547,-2.72392
1563815752186651,-1.66694,1.15718,-2.72413
1563815752207622,-1.66916,1.15904,-2.72316
1563815752224618,-1.6715,1.16074,-2.72155
1563815752246606,-1.67222,1.16156,-2.71939
1563815752275586,-1.67075,1.16254,-2.71685
1563815752283579,-1.66766,1.16379,-2.71334
1563815752306565,-1.66472,1.16513,-2.70948
1563815752327552,-1.66194,1.16628,-2.7053
1563815752343547,-1.65786,1.16696,-2.70043
1563815752366530,-1.65386,1.16777,-2.69579
1563815752387526,-1.64816,1.16815,-2.69009
1563815752404518,-1.64354,1.16858,-2.68509
1563815752426503,-1.63886,1.16859,-2.67987
1563815752449484,-1.63414,1.16811,-2.67501
1563815752464474,-1.62991,1.16744,-2.67104
1563815752492458,-1.62532,1.16674,-2.66672
1563815752509448,-1.62099,1.16566,-2.66167
1563815752524439,-1.6181,1.16468,-2.65681
1563815752546432,-1.61465,1.16333,-2.65111
1563815752569414,-1.61014,1.16206,-2.64471
1563815752583407,-1.60553,1.16097,-2.63898
1563815752607399,-1.59972,1.15985,-2.63277
1563815752629380,-1.59353,1.15911,-2.62649
1563815752643372,-1.58833,1.15848,-2.62106
1563815752666359,-1.58316,1.15758,-2.61538
1563815752689345,-1.57952,1.15664,-2.61084
1563815752703338,-1.57564,1.15547,-2.60635
1563815752732321,-1.5715,1.15449,-2.60168
1563815752749314,-1.56726,1.15385,-2.59648
1563815752771298,-1.56319,1.15328,-2.59109
1563815752786300,-1.55916,1.15182,-2.58635
1563815752809280,-1.55527,1.15048,-2.58249
1563815752823269,-1.55189,1.14943,-2.57943
1563815752852267,-1.54852,1.1488,-2.57599
1563815752869251,-1.54547,1.14773,-2.57237
1563815752884234,-1.54313,1.14684,-2.56913
1563815752907219,-1.54002,1.14542,-2.56567
1563815752935204,-1.53778,1.1448,-2.563
1563815752950195,-1.53555,1.14411,-2.56032
1563815752966187,-1.53351,1.1429,-2.55783
1563815752995169,-1.53131,1.14188,-2.55542
1563815753010161,-1.53001,1.14109,-2.55434
1563815753026151,-1.52842,1.14049,-2.55305
1563815753049139,-1.52736,1.13982,-2.55174
1563815753070157,-1.52657,1.1395,-2.55028
1563815753086147,-1.525,1.13886,-2.54829
1563815753092144,-1.52362,1.13817,-2.54627
1563815753114101,-1.52355,1.1373,-2.54568
1563815753137088,-1.52256,1.13628,-2.54483
1563815753152111,-1.52206,1.13544,-2.54436
1563815753191059,-1.52157,1.13502,-2.54298
1563815753198054,-1.52224,1.13432,-2.54156
1563815753213044,-1.52235,1.13298,-2.53987
1563815753236034,-1.52187,1.13196,-2.53844
1563815753252022,-1.52065,1.13103,-2.53685
1563815753273009,-1.51953,1.13061,-2.5352
1563815753294017,-1.51793,1.12991,-2.53313
1563815753311988,-1.51608,1.12922,-2.53119
1563815753332977,-1.51379,1.1285,-2.52933
1563815753354966,-1.5115,1.12791,-2.52735
1563815753371955,-1.51071,1.12771,-2.5263
1563815753394943,-1.50933,1.1267,-2.52432
1563815753414930,-1.50835,1.12589,-2.52265
1563815753431920,-1.50638,1.12503,-2.51978
1563815753452908,-1.5044,1.12373,-2.51654
1563815753474894,-1.50265,1.12294,-2.51355
1563815753491885,-1.50014,1.12185,-2.51004
1563815753518872,-1.49711,1.12088,-2.50642
1563815753534859,-1.4939,1.12003,-2.50286
1563815753556850,-1.49118,1.11947,-2.49973
1563815753571859,-1.4881,1.11875,-2.49634
1563815753594825,-1.48535,1.1182,-2.493
1563815753611817,-1.48227,1.11762,-2.48949
1563815753631806,-1.47983,1.11734,-2.48675
1563815753654795,-1.4777,1.11714,-2.48472
1563815753672800,-1.47569,1.11675,-2.4831
1563815753694768,-1.47375,1.11644,-2.48157
1563815753716756,-1.47206,1.11642,-2.47988
1563815753736744,-1.47084,1.1162,-2.47819
1563815753751736,-1.46982,1.11585,-2.47648
1563815753774726,-1.46898,1.11571,-2.47449
1563815753798711,-1.4681,1.11494,-2.47273
1563815753812701,-1.46711,1.11375,-2.4716
1563815753837686,-1.46638,1.11314,-2.4708
1563815753852678,-1.46538,1.11227,-2.46942
1563815753873666,-1.46449,1.11133,-2.46777
1563815753894657,-1.46337,1.11,-2.46571
1563815753912645,-1.46261,1.10824,-2.46419
1563815753931636,-1.46214,1.10657,-2.46336
1563815753954619,-1.46132,1.1048,-2.46232
1563815753972612,-1.46096,1.10319,-2.4611
1563815753993596,-1.46028,1.10121,-2.45917
1563815754014585,-1.45885,1.09895,-2.45674
1563815754032576,-1.45767,1.09673,-2.45497
1563815754053565,-1.45592,1.09399,-2.45254
1563815754075550,-1.45551,1.09116,-2.4518
1563815754092541,-1.45463,1.08865,-2.4509
1563815754113529,-1.45217,1.08607,-2.44839
1563815754134519,-1.45026,1.08341,-2.44526
1563815754159501,-1.44794,1.08047,-2.44102
1563815754173495,-1.44547,1.07753,-2.43703
1563815754194481,-1.44087,1.07472,-2.43166
1563815754217469,-1.43636,1.07196,-2.42641
1563815754233460,-1.43126,1.06938,-2.42065
1563815754254448,-1.42552,1.06708,-2.41418
1563815754272438,-1.41949,1.06511,-2.40646
1563815754293425,-1.41347,1.06302,-2.39868
1563815754314414,-1.40719,1.06059,-2.3916
1563815754332404,-1.40042,1.05885,-2.38492
1563815754354391,-1.39417,1.05772,-2.37796
1563815754374380,-1.38919,1.05626,-2.3711
1563815754392368,-1.38483,1.05442,-2.36546
1563815754415356,-1.38003,1.05285,-2.36065
1563815754434344,-1.37615,1.05168,-2.35711
1563815754452335,-1.37342,1.05099,-2.35389
1563815754474325,-1.37142,1.04966,-2.35081
1563815754494309,-1.37059,1.04813,-2.34921
1563815754512300,-1.37018,1.04658,-2.34899
1563815754535288,-1.36983,1.04525,-2.34892
1563815754555275,-1.36968,1.04388,-2.34787
1563815754571266,-1.37144,1.04228,-2.3475
1563815754594252,-1.37375,1.04011,-2.34831
1563815754616240,-1.37606,1.03773,-2.35095
1563815754631233,-1.37894,1.03557,-2.35557
1563815754654218,-1.38159,1.03416,-2.35922
1563815754668210,-1.38448,1.03304,-2.36111
1563815754691197,-1.38923,1.03134,-2.36365
1563815754720181,-1.39264,1.02961,-2.36672
1563815754728176,-1.393,1.02825,-2.36845
1563815754751163,-1.39268,1.02787,-2.36912
1563815754774150,-1.39332,1.02721,-2.369
1563815754788142,-1.39493,1.02614,-2.36986
1563815754814127,-1.3964,1.02497,-2.37285
1563815754840114,-1.39686,1.0244,-2.37645
1563815754855103,-1.39944,1.0241,-2.38059
1563815754879090,-1.40583,1.02244,-2.38666
1563815754894080,-1.41644,1.01877,-2.39739
1563815754915070,-1.42951,1.01329,-2.41366
1563815754939055,-1.44202,1.00755,-2.42938
1563815754954050,-1.45513,1.00041,-2.44052
1563815754975034,-1.47042,0.988929,-2.44923
1563815754991027,-1.48566,0.973298,-2.4592
1563815755014013,-1.49249,0.954617,-2.46792
1563815755034999,-1.48919,0.935202,-2.47329
1563815755050991,-1.4811,0.915223,-2.47504
1563815755073978,-1.47206,0.893548,-2.47303
1563815755102961,-1.4582,0.871153,-2.46496
1563815755111956,-1.43796,0.848026,-2.44896
1563815755133943,-1.41194,0.823851,-2.42714
1563815755154932,-1.37914,0.797654,-2.40094
1563815755171922,-1.3394,0.770321,-2.37135
1563815755195907,-1.2929,0.741727,-2.33849
1563815755214898,-1.23933,0.711936,-2.30145
1563815755230889,-1.17774,0.680491,-2.26122
1563815755253875,-1.11469,0.646978,-2.2197
1563815755276861,-1.05844,0.61015,-2.17786
1563815755290853,-1.00535,0.571443,-2.13662
1563815755313841,-0.95027,0.53049,-2.09728
1563815755336827,-0.89691,0.486482,-2.06257
1563815755350819,-0.846364,0.440288,-2.03091
1563815755381802,-0.797779,0.393,-2.00165
1563815755396793,-0.75364,0.345669,-1.9766
1563815755410785,-0.717981,0.297095,-1.95617
1563815755434772,-0.689827,0.247516,-1.93912
1563815755456759,-0.663913,0.198764,-1.92465
1563815755470750,-0.638102,0.15216,-1.91389
1563815755494738,-0.615731,0.105832,-1.9089
1563815755516725,-0.596646,0.0605975,-1.90571
1563815755537714,-0.578261,0.0184067,-1.90341
1563815755555703,-0.559007,-0.0212354,-1.90283
1563815755576690,-0.541224,-0.059188,-1.90517
1563815755590681,-0.524404,-0.0953849,-1.90938
1563815755617667,-0.505858,-0.127274,-1.91351
1563815755636656,-0.487861,-0.156433,-1.91934
1563815755650647,-0.473459,-0.185231,-1.92515
1563815755673633,-0.463315,-0.212686,-1.93115
1563815755696620,-0.454065,-0.23664,-1.93646
1563815755717608,-0.443876,-0.258102,-1.94038
1563815755733599,-0.432843,-0.278313,-1.9419
1563815755756586,-0.422914,-0.296216,-1.94204
1563815755777574,-0.414522,-0.31051,-1.94153
1563815755793565,-0.407392,-0.32202,-1.9403
1563815755816553,-0.400362,-0.332012,-1.93827
1563815755837539,-0.393789,-0.34047,-1.93617
1563815755853532,-0.388005,-0.347203,-1.93442
1563815755876518,-0.382817,-0.352479,-1.93355
1563815755897506,-0.378243,-0.356988,-1.93357
1563815755913497,-0.374599,-0.36102,-1.93374
1563815755937482,-0.371506,-0.364367,-1.93396
1563815755957472,-0.368502,-0.36748,-1.93423
1563815755974462,-0.365375,-0.370078,-1.93438
1563815755996450,-0.3621,-0.371477,-1.93452
1563815756017436,-0.358449,-0.372229,-1.93499
1563815756034426,-0.354949,-0.373493,-1.93558
1563815756056415,-0.352277,-0.375315,-1.93628
1563815756077402,-0.351251,-0.377463,-1.93684
1563815756094392,-0.350938,-0.379832,-1.93641
1563815756116379,-0.350613,-0.38207,-1.9354
1563815756137371,-0.348987,-0.383541,-1.93335
1563815756154358,-0.346284,-0.384626,-1.93098
1563815756176346,-0.343401,-0.386137,-1.9282
1563815756197335,-0.341744,-0.387472,-1.92547
1563815756214323,-0.341061,-0.388628,-1.92303
1563815756236310,-0.340182,-0.389644,-1.92098
1563815756267297,-0.33823,-0.391223,-1.91924
1563815756274290,-0.336426,-0.393024,-1.91754
1563815756297277,-0.336235,-0.395317,-1.91572
1563815756319264,-0.337678,-0.397771,-1.91349
1563815756334254,-0.339684,-0.400411,-1.91071
1563815756356243,-0.340798,-0.402887,-1.90761
1563815756381228,-0.340309,-0.405202,-1.90444
1563815756393220,-0.338806,-0.407295,-1.90119
1563815756416208,-0.337611,-0.409647,-1.89754
1563815756446190,-0.336944,-0.411469,-1.89341
1563815756453186,-0.336289,-0.413299,-1.88929
1563815756476172,-0.335177,-0.415246,-1.88482
1563815756499160,-0.333681,-0.416915,-1.88067
1563815756513154,-0.332045,-0.418347,-1.87632
1563815756544133,-0.330169,-0.419651,-1.87196
1563815756559126,-0.328933,-0.420639,-1.86718
1563815756573118,-0.328194,-0.421632,-1.86238
1563815756602102,-0.327071,-0.422784,-1.85781
1563815756619093,-0.325001,-0.423607,-1.85329
1563815756634082,-0.32268,-0.424519,-1.84941
1563815756657069,-0.320989,-0.42528,-1.84599
1563815756679056,-0.320069,-0.426273,-1.84308
1563815756693048,-0.319466,-0.427549,-1.8404
1563815756716035,-0.318428,-0.428509,-1.83833
1563815756739022,-0.316819,-0.429229,-1.83691
1563815756760029,-0.314992,-0.429783,-1.83527
1563815756776000,-0.313675,-0.429827,-1.83331
1563815756798987,-0.312744,-0.429074,-1.83105
1563815756821978,-0.311164,-0.427685,-1.82784
1563815756836969,-0.308571,-0.424923,-1.82387
1563815756858953,-0.30502,-0.421935,-1.81988
1563815756879941,-0.301991,-0.418737,-1.81566
1563815756896934,-0.301392,-0.414647,-1.81028
1563815756918925,-0.302928,-0.409293,-1.80449
1563815756939926,-0.305041,-0.402728,-1.79847
1563815756955897,-0.305997,-0.395246,-1.79326
1563815756980883,-0.3048,-0.387596,-1.78877
1563815756999893,-0.30236,-0.379634,-1.78491
1563815757016862,-0.299893,-0.371504,-1.78153
1563815757038869,-0.297299,-0.363698,-1.779
1563815757059857,-0.294024,-0.35639,-1.77721
1563815757075830,-0.289853,-0.349659,-1.77629
1563815757099823,-0.28495,-0.343728,-1.77645
1563815757119822,-0.279312,-0.339222,-1.77774
1563815757135797,-0.273016,-0.335569,-1.77993
1563815757158781,-0.266732,-0.332753,-1.7836
1563815757181769,-0.260792,-0.331107,-1.78779
1563815757195761,-0.255054,-0.330604,-1.79249
1563815757218747,-0.250026,-0.33063,-1.79728
1563815757241734,-0.245723,-0.331719,-1.80214
1563815757256728,-0.241338,-0.333652,-1.80692
1563815757278713,-0.236704,-0.335751,-1.81134
1563815757301700,-0.231691,-0.337966,-1.8152
1563815757323690,-0.226722,-0.34012,-1.81868
1563815757338681,-0.222611,-0.342573,-1.82158
1563815757361668,-0.219547,-0.345057,-1.8236
1563815757375661,-0.217098,-0.347034,-1.8252
1563815757398646,-0.215166,-0.348966,-1.82654
1563815757421630,-0.213274,-0.351028,-1.82749
1563815757436622,-0.211748,-0.352783,-1.82842
1563815757458626,-0.210939,-0.354344,-1.82907
1563815757481597,-0.210198,-0.355707,-1.82947
1563815757495589,-0.209725,-0.356694,-1.82943
1563815757518576,-0.209446,-0.357411,-1.8291
1563815757541562,-0.20898,-0.357622,-1.82853
1563815757555557,-0.20857,-0.357815,-1.82772
1563815757563552,-0.207719,-0.357674,-1.82693
1563815757584537,-0.206964,-0.357485,-1.8263
1563815757606544,-0.206506,-0.357068,-1.82563
1563815757623515,-0.206051,-0.356769,-1.82522
1563815757644521,-0.205739,-0.356698,-1.82501
1563815757666490,-0.20564,-0.356774,-1.82503
1563815757683481,-0.205555,-0.356672,-1.82503
1563815757704489,-0.205456,-0.356748,-1.82504
1563815757726456,-0.204306,-0.356818,-1.82552
1563815757743446,-0.203056,-0.356629,-1.82618
1563815757765435,-0.201875,-0.356386,-1.82704
1563815757786440,-0.200748,-0.355789,-1.82784
1563815757803417,-0.199399,-0.35534,-1.82869
1563815757824419,-0.197739,-0.354961,-1.82978
1563815757847390,-0.196106,-0.354586,-1.83084
1563815757863378,-0.194606,-0.354227,-1.83194
1563815757884384,-0.193162,-0.353992,-1.83325
1563815757907354,-0.191844,-0.353348,-1.83469
1563815757931342,-0.190528,-0.352704,-1.83613
1563815757944335,-0.189511,-0.351831,-1.83753
1563815757967318,-0.188298,-0.351108,-1.83896
1563815757983309,-0.186986,-0.35046,-1.8404
1563815758004316,-0.185709,-0.349764,-1.84146
1563815758027301,-0.184962,-0.349353,-1.84267
1563815758045276,-0.183937,-0.348964,-1.84373
1563815758064262,-0.182714,-0.348725,-1.84482
1563815758087268,-0.181363,-0.348581,-1.84614
1563815758105259,-0.180307,-0.348545,-1.84723
1563815758124247,-0.179679,-0.348188,-1.84807
1563815758147215,-0.178755,-0.347581,-1.84867
1563815758168207,-0.177211,-0.34697,-1.84931
1563815758185193,-0.175409,-0.34641,-1.84995
1563815758210179,-0.173373,-0.345699,-1.8504
1563815758225171,-0.171948,-0.344833,-1.851
1563815758244162,-0.170861,-0.344042,-1.85179
1563815758267145,-0.169746,-0.343271,-1.85278
1563815758285137,-0.168409,-0.342644,-1.85382
1563815758304143,-0.16682,-0.342043,-1.8547
1563815758327115,-0.165327,-0.341391,-1.85573
1563815758345101,-0.164162,-0.340943,-1.8566
1563815758364095,-0.16326,-0.340626,-1.85746
1563815758387076,-0.162545,-0.340519,-1.8583
1563815758405067,-0.161697,-0.340612,-1.85884
1563815758424056,-0.161131,-0.340864,-1.85952
1563815758447043,-0.160598,-0.341074,-1.85982
1563815758465032,-0.160598,-0.341074,-1.85982
1563815758487024,-0.159934,-0.341241,-1.8599
1563815758507027,-0.159236,-0.341315,-1.85992
1563815758525017,-0.158462,-0.341263,-1.85976
1563815758544006,-0.157755,-0.341468,-1.85944
1563815758566997,-0.156891,-0.34165,-1.85911
1563815758584964,-0.155839,-0.341828,-1.85898
1563815758604953,-0.154793,-0.341982,-1.85866
1563815758626941,-0.153714,-0.342179,-1.85873
1563815758644929,-0.152716,-0.342273,-1.85864
1563815758663918,-0.151795,-0.342493,-1.85873
1563815758686906,-0.150984,-0.342932,-1.85905
1563815758704895,-0.149896,-0.343394,-1.85923
1563815758725882,-0.148622,-0.343852,-1.8596
1563815758741874,-0.147557,-0.344319,-1.85976
1563815758764861,-0.147056,-0.344694,-1.85985
1563815758785851,-0.14635,-0.345034,-1.85998
1563815758801839,-0.145499,-0.345197,-1.86026
1563815758824826,-0.144502,-0.345424,-1.86062
1563815758845814,-0.144502,-0.345424,-1.86062
1563815758862805,-0.144502,-0.345424,-1.86062
1563815758884791,-0.144421,-0.345321,-1.86061
1563815758905779,-0.143814,-0.345162,-1.86081
1563815758922770,-0.143089,-0.345049,-1.86087
1563815758944757,-0.142459,-0.344884,-1.8611
1563815758965744,-0.142459,-0.344884,-1.8611
1563815758982738,-0.142359,-0.344959,-1.86111
1563815759004723,-0.142177,-0.345062,-1.86157
1563815759026711,-0.142019,-0.345171,-1.862
1563815759047697,-0.142019,-0.345171,-1.862
1563815759063689,-0.141919,-0.345246,-1.86202
1563815759086675,-0.141896,-0.34524,-1.86205
1563815759100667,-0.141545,-0.34566,-1.86233
1563815759123654,-0.140991,-0.346045,-1.86266
1563815759146642,-0.140172,-0.34693,-1.86309
1563815759161633,-0.138803,-0.347753,-1.86376
1563815759184620,-0.137678,-0.348678,-1.86426
1563815759206607,-0.136546,-0.349625,-1.86494
1563815759220598,-0.135413,-0.350573,-1.86563
1563815759243587,-0.133795,-0.351715,-1.86639
1563815759266574,-0.132116,-0.352575,-1.86714
1563815759280565,-0.130799,-0.353492,-1.86785
1563815759303551,-0.129988,-0.354221,-1.86845
1563815759326538,-0.129386,-0.354776,-1.86884
1563815759340530,-0.128517,-0.355407,-1.86942
1563815759363517,-0.127914,-0.355961,-1.86981
1563815759386503,-0.127527,-0.356211,-1.87032
1563815759400495,-0.127399,-0.356408,-1.87082
1563815759431479,-0.127779,-0.356417,-1.8712
1563815759446469,-0.128058,-0.356501,-1.87161
1563815759460461,-0.128058,-0.356501,-1.87161
1563815759484451,-0.128058,-0.356501,-1.87161
1563815759506435,-0.128058,-0.356501,-1.87161
1563815759527426,-0.12797,-0.356421,-1.87179
1563815759544420,-0.127869,-0.356495,-1.87181
1563815759566401,-0.127869,-0.356495,-1.87181
1563815759587408,-0.127869,-0.356495,-1.87181
1563815759604398,-0.127319,-0.35704,-1.87196
1563815759626366,-0.126446,-0.357485,-1.87255
1563815759655349,-0.126018,-0.358197,-1.87337
1563815759664344,-0.125583,-0.358933,-1.87438
1563815759686331,-0.124897,-0.359803,-1.87548
1563815759707323,-0.124255,-0.360501,-1.87654
1563815759724310,-0.123378,-0.361365,-1.87784
1563815759746297,-0.122522,-0.362048,-1.87913
1563815759767304,-0.121948,-0.362687,-1.88038
1563815759784275,-0.121427,-0.363131,-1.88139
1563815759806263,-0.121256,-0.36318,-1.88229
1563815759827270,-0.120982,-0.363198,-1.88293
1563815759844245,-0.120885,-0.362768,-1.8833
1563815759874243,-0.121228,-0.362211,-1.88336
1563815759887236,-0.121492,-0.36155,-1.88342
1563815759904207,-0.121763,-0.360865,-1.88331
1563815759926194,-0.122231,-0.360242,-1.88332
1563815759947201,-0.122967,-0.35973,-1.88314
1563815759964172,-0.123915,-0.359231,-1.88273
1563815759987163,-0.124666,-0.358858,-1.88219
1563815760009146,-0.125157,-0.358536,-1.88166
1563815760023141,-0.125415,-0.358564,-1.88137
1563815760046128,-0.125845,-0.358568,-1.88074
1563815760069112,-0.126009,-0.358646,-1.8803
1563815760084105,-0.126048,-0.358792,-1.87991
1563815760106091,-0.125867,-0.358762,-1.87993
1563815760129079,-0.125867,-0.358762,-1.87993
1563815760151066,-0.125867,-0.358762,-1.87993
1563815760166058,-0.125426,-0.358784,-1.87995
1563815760189046,-0.124834,-0.35876,-1.87979
1563815760210035,-0.124234,-0.358573,-1.87981
1563815760226022,-0.123779,-0.35875,-1.87969
1563815760249013,-0.123632,-0.358996,-1.87976
1563815760264001,-0.123195,-0.359309,-1.88005
1563815760286987,-0.122553,-0.359585,-1.8804
1563815760309974,-0.122288,-0.359766,-1.88085
1563815760322967,-0.122209,-0.359662,-1.88085
1563815760348952,-0.122209,-0.359662,-1.88085
1563815760368940,-0.121846,-0.359602,-1.88089
1563815760382932,-0.121145,-0.35949,-1.88093
1563815760406933,-0.120545,-0.359303,-1.88096
1563815760429906,-0.120545,-0.359303,-1.88096
1563815760442897,-0.120545,-0.359303,-1.88096
1563815760466884,-0.120545,-0.359303,-1.88096
1563815760488870,-0.120523,-0.359482,-1.88098
1563815760509859,-0.120443,-0.359377,-1.88098
1563815760526849,-0.120443,-0.359377,-1.88098
1563815760549841,-0.120443,-0.359377,-1.88098
1563815760569826,-0.120443,-0.359377,-1.88098
1563815760586816,-0.120443,-0.359377,-1.88098
1563815760608803,-0.120341,-0.359452,-1.881
1563815760630802,-0.120341,-0.359452,-1.881
1563815760646782,-0.120341,-0.359452,-1.881
1563815760668768,-0.120262,-0.359348,-1.881
1563815760689756,-0.120262,-0.359348,-1.881
1563815760706746,-0.120262,-0.359348,-1.881
1563815760728734,-0.120137,-0.359414,-1.88105
1563815760749722,-0.120137,-0.359414,-1.88105
1563815760766712,-0.120081,-0.359318,-1.88102
1563815760788700,-0.120073,-0.359341,-1.88119
1563815760817682,-0.120175,-0.359267,-1.88117
1563815760826678,-0.120073,-0.359341,-1.88119
1563815760848665,-0.12005,-0.359333,-1.88122
1563815760869653,-0.12005,-0.359333,-1.88122
1563815760886644,-0.12005,-0.359333,-1.88122
1563815760908633,-0.119971,-0.359229,-1.88122
1563815760931618,-0.119971,-0.359229,-1.88122
1563815760946609,-0.119869,-0.359303,-1.88124
1563815760968596,-0.119869,-0.359303,-1.88124
1563815760991583,-0.11979,-0.359199,-1.88124
1563815761006575,-0.11979,-0.359199,-1.88124
1563815761028561,-0.119688,-0.359274,-1.88126
1563815761051548,-0.119688,-0.359274,-1.88126
1563815761066539,-0.119688,-0.359274,-1.88126
1563815761088527,-0.119609,-0.359169,-1.88126
1563815761111514,-0.119609,-0.359169,-1.88126
1563815761125506,-0.119609,-0.359169,-1.88126
1563815761149492,-0.119507,-0.359244,-1.88128
1563815761171481,-0.119507,-0.359244,-1.88128
1563815761185472,-0.119507,-0.359244,-1.88128
1563815761209458,-0.119428,-0.359139,-1.88128
1563815761231446,-0.119326,-0.359214,-1.8813
1563815761245438,-0.119326,-0.359214,-1.8813
1563815761269424,-0.119326,-0.359214,-1.8813
1563815761291410,-0.118756,-0.359617,-1.88182
1563815761305403,-0.118298,-0.360213,-1.88242
1563815761329389,-0.118074,-0.360646,-1.88276
1563815761351377,-0.117954,-0.361295,-1.88334
1563815761374363,-0.117612,-0.361661,-1.88407
1563815761389355,-0.117175,-0.362079,-1.88464
1563815761411342,-0.117044,-0.36246,-1.88514
1563815761432330,-0.116921,-0.362818,-1.88546
1563815761449321,-0.116719,-0.363257,-1.88577
1563815761471308,-0.116415,-0.363771,-1.8861
1563815761492295,-0.115985,-0.364352,-1.88649
1563815761508287,-0.115625,-0.364873,-1.88707
1563815761537271,-0.115314,-0.365515,-1.88786
1563815761552262,-0.115135,-0.366067,-1.88841
1563815761569253,-0.115351,-0.36677,-1.889
1563815761591239,-0.115479,-0.367578,-1.88975
1563815761612227,-0.115355,-0.368228,-1.89034
1563815761629219,-0.114891,-0.368823,-1.89095
1563815761651205,-0.114308,-0.369648,-1.89142
1563815761672193,-0.114214,-0.370469,-1.8918
1563815761689183,-0.114404,-0.371247,-1.89214
1563815761711171,-0.114231,-0.371963,-1.89252
1563815761732159,-0.113765,-0.372558,-1.89312
1563815761749149,-0.113582,-0.373111,-1.89368
1563815761771136,-0.113605,-0.373328,-1.89421
1563815761792124,-0.113358,-0.37362,-1.89492
1563815761815111,-0.113009,-0.373799,-1.89566
1563815761831103,-0.112517,-0.373799,-1.89654
1563815761852090,-0.112176,-0.373953,-1.89711
1563815761876076,-0.112032,-0.374171,-1.8978
1563815761891067,-0.111839,-0.374559,-1.89855
1563815761914054,-0.111828,-0.37498,-1.89928
1563815761929045,-0.111904,-0.375482,-1.89983
1563815761952033,-0.111813,-0.375985,-1.90055
1563815761974020,-0.111858,-0.37621,-1.90105
1563815761989011,-0.112006,-0.376363,-1.90152
1563815762010999,-0.112042,-0.376613,-1.90219
1563815762033986,-0.111929,-0.376628,-1.90267
1563815762047977,-0.111841,-0.376651,-1.90313
1563815762071964,-0.111752,-0.376674,-1.90358
1563815762093951,-0.11179,-0.376632,-1.90398
1563815762099947,-0.11179,-0.376632,-1.90398
1563815762115938,-0.111805,-0.376582,-1.90441
1563815762136926,-0.111535,-0.376573,-1.90489
1563815762158914,-0.111392,-0.376499,-1.90531
1563815762175905,-0.111485,-0.376554,-1.90574
1563815762196901,-0.111862,-0.376569,-1.90613
1563815762218880,-0.111862,-0.376569,-1.90613
1563815762233870,-0.111862,-0.376569,-1.90613
1563815762256857,-0.111759,-0.376642,-1.90615
1563815762278844,-0.111759,-0.376642,-1.90615
1563815762294836,-0.111759,-0.376642,-1.90615
1563815762316823,-0.111759,-0.376642,-1.90615
1563815762339810,-0.111759,-0.376642,-1.90615
1563815762354801,-0.111681,-0.376536,-1.90615
1563815762376789,-0.111578,-0.37661,-1.90618
1563815762399775,-0.111578,-0.37661,-1.90618
1563815762414766,-0.111578,-0.37661,-1.90618
1563815762436754,-0.111578,-0.37661,-1.90618
1563815762459741,-0.111396,-0.376577,-1.9062
1563815762474731,-0.111396,-0.376577,-1.9062
1563815762496722,-0.111396,-0.376577,-1.9062
1563815762519707,-0.111396,-0.376577,-1.9062
1563815762535697,-0.111269,-0.376642,-1.90625
1563815762556705,-0.111269,-0.376642,-1.90625
1563815762579673,-0.110588,-0.376635,-1.90655
1563815762595663,-0.1099,-0.376651,-1.90702
1563815762616651,-0.109369,-0.376691,-1.90751
1563815762640637,-0.109027,-0.376739,-1.9078
1563815762655629,-0.108447,-0.37695,-1.90835
1563815762693607,-0.107772,-0.377209,-1.90875
1563815762699606,-0.10719,-0.377607,-1.90929
1563815762715594,-0.106884,-0.378095,-1.90946
1563815762744578,-0.106777,-0.378461,-1.90976
1563815762762567,-0.106702,-0.37881,-1.90985
1563815762775559,-0.106702,-0.37881,-1.90985
1563815762798547,-0.106599,-0.378884,-1.90988
1563815762822533,-0.106599,-0.378884,-1.90988
1563815762837524,-0.106599,-0.378884,-1.90988
1563815762856516,-0.106759,-0.378804,-1.90961
1563815762879499,-0.106716,-0.378578,-1.90911
1563815762897490,-0.106917,-0.378458,-1.90845
1563815762924476,-0.10703,-0.378445,-1.90796
1563815762934468,-0.107444,-0.37853,-1.90707
1563815762957456,-0.107463,-0.378565,-1.90643
1563815762984441,-0.107534,-0.378886,-1.90581
1563815762994434,-0.107471,-0.379108,-1.90544
1563815763017422,-0.10728,-0.379583,-1.90513
1563815763036411,-0.106826,-0.380212,-1.9051
1563815763054399,-0.10614,-0.38098,-1.90517
1563815763077387,-0.105533,-0.381854,-1.90523
1563815763096376,-0.104813,-0.382826,-1.9055
1563815763114366,-0.10425,-0.383821,-1.90578
1563815763137352,-0.103749,-0.385078,-1.90592
1563815763156342,-0.102722,-0.386539,-1.90637
1563815763174331,-0.101806,-0.387902,-1.90662
1563815763204314,-0.101211,-0.38937,-1.90721
1563815763217307,-0.101076,-0.39096,-1.90742
1563815763234296,-0.100962,-0.392103,-1.90749
1563815763264280,-0.100568,-0.393185,-1.90733
1563815763277272,-0.10017,-0.393811,-1.90707
1563815763295262,-0.100596,-0.394356,-1.90627
1563815763317249,-0.1009,-0.394673,-1.90524
1563815763337239,-0.101166,-0.394737,-1.90433
1563815763355227,-0.101485,-0.394899,-1.90346
1563815763377215,-0.101761,-0.39491,-1.90298
1563815763397205,-0.102299,-0.394869,-1.90248
1563815763415193,-0.103142,-0.394899,-1.90219
1563815763437180,-0.103636,-0.394898,-1.90208
1563815763458169,-0.103636,-0.394898,-1.90208
1563815763482154,-0.103532,-0.394972,-1.90211
1563815763497145,-0.103453,-0.394866,-1.9021
1563815763518134,-0.103453,-0.394866,-1.9021
1563815763539122,-0.103325,-0.394931,-1.90216
1563815763556115,-0.103246,-0.394825,-1.90216
1563815763577119,-0.103142,-0.394899,-1.90219
1563815763594090,-0.103133,-0.394924,-1.90236
1563815763616079,-0.103133,-0.394924,-1.90236
1563815763637085,-0.103029,-0.394998,-1.90239
1563815763654058,-0.103315,-0.395174,-1.90173
1563815763676062,-0.103828,-0.395341,-1.90065
1563815763705026,-0.104702,-0.396082,-1.8992
1563815763714021,-0.10578,-0.397184,-1.89736
1563815763736010,-0.107285,-0.398663,-1.8949
1563815763758997,-0.109674,-0.400659,-1.89159
1563815763773987,-0.112386,-0.403448,-1.88754
1563815763796974,-0.11555,-0.406554,-1.8833
1563815763818962,-0.119141,-0.410018,-1.87846
1563815763833952,-0.122317,-0.413818,-1.87333
1563815763856939,-0.125834,-0.417998,-1.86806
1563815763878927,-0.130515,-0.422512,-1.86246
1563815763892919,-0.135359,-0.427228,-1.85631
1563815763916905,-0.139275,-0.432231,-1.8501
1563815763938892,-0.142108,-0.436362,-1.84433
1563815763952885,-0.142775,-0.439239,-1.84086
1563815763982867,-0.141239,-0.440172,-1.84
1563815763998858,-0.138866,-0.439625,-1.84085
1563815764012869,-0.13763,-0.438505,-1.84224
1563815764036836,-0.137692,-0.437386,-1.84345
1563815764058824,-0.137962,-0.436965,-1.84415
1563815764072820,-0.137142,-0.437238,-1.84452
1563815764096803,-0.135453,-0.438163,-1.84475
1563815764118789,-0.134165,-0.438933,-1.84472
1563815764133781,-0.133958,-0.439889,-1.84475
1563815764156770,-0.134432,-0.440669,-1.84465
1563815764178755,-0.134859,-0.441622,-1.8446
1563815764193746,-0.134624,-0.442568,-1.84466
1563815764216735,-0.134231,-0.443497,-1.84472
1563815764238720,-0.134258,-0.44431,-1.84467
1563815764253713,-0.134482,-0.445122,-1.8444
1563815764276700,-0.134645,-0.445994,-1.84396
1563815764298686,-0.134378,-0.446715,-1.84354
1563815764319674,-0.133782,-0.447207,-1.8431
1563815764336665,-0.133242,-0.447794,-1.8427
1563815764358653,-0.132533,-0.448394,-1.84249
1563815764379659,-0.132039,-0.449106,-1.8423
1563815764396631,-0.131403,-0.449617,-1.84209
1563815764426613,-0.130841,-0.450039,-1.84187
1563815764439606,-0.130341,-0.450401,-1.84183
1563815764456596,-0.13004,-0.450987,-1.84178
1563815764478583,-0.130023,-0.451678,-1.84151
1563815764499571,-0.130173,-0.452439,-1.84083
1563815764517560,-0.130673,-0.453455,-1.83955
1563815764538564,-0.131567,-0.454341,-1.83817
1563815764559555,-0.132685,-0.45511,-1.8369
1563815764576527,-0.133273,-0.455724,-1.83591
1563815764598515,-0.133922,-0.456575,-1.83539
1563815764620504,-0.134893,-0.4576,-1.83529
1563815764636492,-0.136052,-0.458952,-1.83544
1563815764658498,-0.137129,-0.460043,-1.83574
1563815764680470,-0.137872,-0.461061,-1.83588
1563815764703453,-0.138222,-0.462209,-1.83611
1563815764718464,-0.139012,-0.463054,-1.83619
1563815764741431,-0.139925,-0.463182,-1.83608
1563815764756423,-0.140028,-0.463103,-1.83605
1563815764779410,-0.139548,-0.463126,-1.83614
1563815764801397,-0.139548,-0.463126,-1.83614
1563815764816388,-0.139634,-0.463233,-1.83614
1563815764839390,-0.139791,-0.463548,-1.83642
1563815764867379,-0.139616,-0.463933,-1.83697
1563815764876354,-0.139159,-0.464721,-1.83743
1563815764899342,-0.138512,-0.465481,-1.83792
1563815764921328,-0.138168,-0.466159,-1.83817
1563815764935339,-0.138325,-0.466558,-1.83821
1563815764959307,-0.138985,-0.466873,-1.83779
1563815764981294,-0.138985,-0.466873,-1.83779
1563815764996289,-0.138593,-0.466704,-1.8376
1563815765019291,-0.137756,-0.466413,-1.83762
1563815765041279,-0.13699,-0.466033,-1.83764
1563815765056254,-0.13699,-0.466033,-1.83764
1563815765079238,-0.137088,-0.466109,-1.83746
1563815765109222,-0.137191,-0.46603,-1.83743
1563815765116217,-0.136925,-0.466248,-1.83731
1563815765145200,-0.136925,-0.466248,-1.83731
1563815765161191,-0.136925,-0.466248,-1.83731
1563815765176187,-0.13706,-0.466241,-1.83792
1563815765206165,-0.137354,-0.466335,-1.83829
1563815765221160,-0.137354,-0.466335,-1.83829
1563815765242148,-0.137268,-0.466228,-1.83829
1563815765259135,-0.137135,-0.466295,-1.83834
1563815765281125,-0.137135,-0.466295,-1.83834
1563815765302110,-0.136715,-0.466258,-1.83861
1563815765319101,-0.136703,-0.466288,-1.8388
1563815765341088,-0.136673,-0.466276,-1.83883
1563815765362077,-0.136673,-0.466276,-1.83883
1563815765379067,-0.136673,-0.466276,-1.83883
1563815765401056,-0.136673,-0.466276,-1.83883
1563815765424040,-0.136685,-0.466246,-1.83864
1563815765439032,-0.136685,-0.466246,-1.83864
1563815765461018,-0.136673,-0.466276,-1.83883
1563815765482026,-0.136571,-0.466355,-1.83886
1563815765499000,-0.136571,-0.466355,-1.83886
1563815765520985,-0.136669,-0.466431,-1.83868
1563815765541972,-0.136669,-0.466431,-1.83868
1563815765558963,-0.136669,-0.466431,-1.83868
1563815765580953,-0.136566,-0.46651,-1.83871
1563815765602941,-0.136566,-0.46651,-1.83871
1563815765618931,-0.136669,-0.466431,-1.83868
1563815765641918,-0.136468,-0.466434,-1.83889
1563815765662903,-0.136468,-0.466434,-1.83889
